,ECG_Rate_Mean,HRV_RMSSD,HRV_MeanNN,HRV_SDNN,HRV_SDSD,HRV_CVNN,HRV_CVSD,HRV_MedianNN,HRV_MadNN,HRV_MCVNN,HRV_pNN50,HRV_pNN20,HRV_TINN,HRV_HTI,HRV_ULF,HRV_VLF,HRV_LF,HRV_HF,HRV_VHF,HRV_LFHF,HRV_LFn,HRV_HFn,HRV_LnHF,HRV_SD1,HRV_SD2,HRV_SD2SD1,HRV_CSI,HRV_CVI,HRV_CSI_Modified,HRV_SampEn
0,1.0198828857597335,0.9374628556625093,0.9807147949722173,0.9428950372028653,0.9331890400532303,0.961436446812233,0.9558971623971912,0.9817299301919721,1.0,1.0186170212765957,,inf,1.1586274509803922,1.185252384934866,,,,,,,,,,0.9331890400532303,0.9331890400532303,1.0000000000000002,1.0000000000000002,0.9787861510147582,0.9331890400532306,0.8587306111783048
1,0.9016212707673998,1.646394213855828,1.1089908148891567,1.2121971279119048,1.6416991238264749,1.0930632712526689,1.4845877817485664,1.1133451898692488,1.1047619047619048,0.9922434953362789,,inf,1.3679245283018866,1.165359653866955,,,,,,,,,,1.6416991238264749,1.6416991238264749,1.0,1.0,1.1728133377789731,1.6416991238264749,1.3511386322500436
2,1.0336132524464174,0.9737268494231959,0.9678878962036339,1.0940668466284746,0.9681264879742274,1.1303652404881634,1.006032627790112,0.9803921568627451,1.1111111111111112,1.1333333333333333,,inf,1.4062745098039215,1.4112710704342708,,,,,,,,,,0.9681264879742273,0.9681264879742273,1.0,1.0,0.9905795307582983,0.9681264879742273,0.853926010577194
3,0.951885617785905,1.2354419454488217,1.0497241709017382,1.1903375164865948,1.2360880388651245,1.1339528053733352,1.1769208326825769,1.0561224489795917,1.1428571428571428,1.0821256038647344,,inf,1.5580673758865249,1.3892554885201944,,,,,,,,,,1.2360880388651245,1.2360880388651245,1.0,1.0,1.0676768863517703,1.2360880388651247,0.8045407568412859
4,1.0636077238623338,0.7477801042524663,0.9423834846346153,0.6853939285019239,0.7457935590929343,0.7272984825878678,0.7934992955585534,0.9333333333333333,0.7867647058823529,0.8429621848739496,,0.8397790055248618,0.5233265720081136,1.248446276263782,,,,,,,,,,0.7457935590929342,0.7457935590929343,1.0,1.0,0.9165153386556117,0.7457935590929343,1.3012395839079973
5,1.0470523841086674,0.5214735736387233,0.9538691326719964,0.796674814995768,0.5194923100234667,0.8352034871285726,0.5466929136912637,0.9451073985680191,0.5483870967741935,0.580237862495927,,0.08322087269455689,1.0449438202247192,1.9406033940917664,,,,,,,,,,0.5194923100234666,0.5194923100234667,1.0000000000000002,1.0000000000000002,0.8328163925217462,0.5194923100234667,1.216470437674658
6,0.9663183273316074,0.6939590232407267,1.0346273609603036,1.044210990756059,0.6907985010415068,1.0092628710236147,0.6707332651717011,1.046116504854369,0.6111111111111112,0.5842975404344914,,0.5458515283842794,1.1803571428571429,1.2237160906726123,,,,,,,,,,0.6907985010415068,0.6907985010415068,0.9999999999999999,0.9999999999999999,0.8967486851610426,0.6907985010415068,0.7776836191398375
7,1.0635233138788156,0.7748705050289706,0.9402367612916858,0.870897803440724,0.7704193284804042,0.9262537003656712,0.8241227691570957,0.9022932308945928,1.0526315789473684,1.1666197579510271,,0.1415270018621974,1.1724137931034482,2.121468653250774,,,,,,,,,,0.7704193284804042,0.7704193284804042,1.0,1.0,0.923405503977948,0.7704193284804042,1.8172942996603658
8,0.973023290292752,0.7492776531181979,1.0297657841980645,0.713734638034099,0.7476562273672155,0.6931038416977112,0.7276194060991282,1.007799006908463,0.5,0.4961340206185567,,0.10771276595744682,0.7004741290455576,1.1922692533803645,,,,,,,,,,0.7476562273672155,0.7476562273672155,1.0,1.0,0.91639876756735,0.7476562273672154,1.1271190772102515
9,1.0180012096033306,0.9314311341133155,0.9826612056373304,0.9572210822947798,0.930460728037308,0.9741109924798032,0.9478659875548985,0.9903381642512077,0.625,0.6310975609756098,,0.6686746987951807,1.2258064516129032,1.1194646569646571,,,,,,,,,,0.930460728037308,0.9304607280373081,1.0,1.0,0.9787108207591197,0.9304607280373081,0.641067874017283
10,0.9394417987107497,1.58009764047064,1.0638851095151,1.1572863808561427,1.5769243327504103,1.087792629585363,1.485214546513223,1.0666666666666667,0.6666666666666667,0.6250000000000001,,7.491379310344827,1.3488372093023255,1.4333936106088003,,,,,,,,,,1.5769243327504103,1.5769243327504106,1.0,1.0,1.1413347098725035,1.5769243327504108,0.7477997791023789
11,0.8929598791459,1.4684460041650782,1.1200626625049601,1.3997643967788282,1.462903596013521,1.249719719830969,1.311039152828269,1.1231807783531922,0.8712121212121211,0.7756217838765008,,inf,1.96875,1.4242160278745644,,,,,,,,,,1.462903596013521,1.4629035960135213,1.0,1.0,1.1230990746426213,1.4629035960135215,0.6961836862882614
12,0.9705261958752907,1.0831037110375599,1.0304037015108656,1.347291154890208,1.0771952937165814,1.3075371846148216,1.0511450118525594,1.0414507772020725,1.7181818181818183,1.649796472184532,,1.1666666666666667,1.6621621621621623,1.7230769230769232,,,,,,,,,,1.0771952937165814,1.0771952937165814,1.0,1.0,1.0226141016865873,1.0771952937165814,0.8127955736800916
13,0.9109742909376741,1.014408150439876,1.0975707091255604,0.7680032090984922,1.010277812551497,0.6997300517525326,0.9242303407022039,1.1105398457583548,0.7417582417582418,0.6679258241758242,,inf,1.2325581395348837,1.1719609675075264,,,,,,,,,,1.010277812551497,1.0102778125514973,1.0000000000000002,1.0000000000000002,1.002876473650508,1.0102778125514975,1.1955146282156819
14,0.9827925427446738,1.5407435630358997,1.017407376326507,1.3308573920308946,1.5327889511309918,1.3080870288518482,1.514382143167638,1.0145631067961165,1.0,0.9856459330143541,,inf,2.1875,1.782,,,,,,,,,,1.5327889511309918,1.5327889511309918,1.0,1.0,1.1532832797676305,1.5327889511309918,1.348240105348594
15,0.9711637282037962,0.9626268673172332,1.0299546707790084,0.8191181019914884,0.9592263105361629,0.7952952933083421,0.9346303236715733,1.0479397163120567,0.9258241758241759,0.8834836389763348,,,1.0476190476190477,1.3715770509977827,,,,,,,,,,0.9592263105361629,0.9592263105361629,1.0,1.0,0.9868031365630283,0.959226310536163,1.9180081434104577
16,1.0036574087380727,0.8979498645931225,0.9959606813032333,1.3367337948745723,0.8932216770855076,1.3421551540888639,0.9015915374449184,1.020094562647754,1.2692307692307694,1.2442739008864299,,0.5972350230414747,1.490909090909091,0.8509832982724549,,,,,,,,,,0.8932216770855077,0.8932216770855076,0.9999999999999999,0.9999999999999999,0.9688004886146533,0.8932216770855075,0.9037444685020152
17,0.9127072463148245,0.9660991473682037,1.0961601041327693,0.9812852679120749,0.961688039658759,0.895202502091081,0.8813485764769156,1.105263157894737,0.6491228070175439,0.5873015873015873,,1.25,1.7592915214866434,1.0705050505050504,,,,,,,,,,0.961688039658759,0.961688039658759,1.0,1.0,0.9877232977113082,0.961688039658759,0.8102831563006192
18,0.9845187549459555,0.8939473907382434,1.0162524571547713,0.7534022626137853,0.8900139852921358,0.7413535080138384,0.8796511154998983,1.0303108493716229,0.7840909090909092,0.7609382596013612,,0.6553903345724907,0.9763305322128851,1.3762268450621602,,,,,,,,,,0.8900139852921358,0.8900139852921358,1.0,1.0,0.9692663180079841,0.8900139852921358,1.3439232207085285
19,0.9734551756253106,0.8584314033289743,1.0253931449652374,0.7189876598519906,0.8571104629786573,0.7011824193087535,0.8371730577089926,1.0258152173913042,0.8138528138528138,0.7933675519882417,,0.553081098339719,0.7840909090909091,1.0609756097560976,,,,,,,,,,0.8571104629786575,0.8571104629786573,0.9999999999999999,0.9999999999999999,0.959579538831733,0.8571104629786573,0.8935516343440367
20,0.949670615965038,1.5008383349538006,1.0541640566325179,1.4507269255800788,1.4939456059837457,1.3761781371860402,1.4237221615208928,1.0260416666666667,1.4722222222222223,1.4348561759729273,inf,2.5288892983830102,2.3795662100456623,1.3023550523550522,,,,,,,,,,1.4939456059837457,1.4939456059837455,1.0,1.0,1.1072098450422712,1.4939456059837455,1.170165409633853
21,0.9586924045224277,1.0738378215583206,1.0436399591828738,0.9418151695982067,1.0700732419241514,0.902433018100216,1.028935073298701,1.0623384253819037,1.1238095238095238,1.0576773566569486,,0.8263565891472868,0.8494623655913979,1.4657804219742603,,,,,,,,,,1.0700732419241517,1.0700732419241517,0.9999999999999999,0.9999999999999999,1.0179998983941694,1.0700732419241514,1.0716486798140932
22,0.9746359161276841,1.0139121815275562,1.025556651724876,0.8422786177568395,1.01061626261625,0.8212892153156215,0.988645707501643,1.0402298850574712,0.7000000000000001,0.6729281767955801,,0.5839506172839506,0.9940476190476191,1.167514534883721,,,,,,,,,,1.01061626261625,1.01061626261625,1.0,1.0,1.0029278864626168,1.01061626261625,1.2926399267672282
23,0.8493822104741191,2.9358193639832315,1.1776066465843942,1.8417761567435376,2.9260713568629306,1.563999457786302,2.4930390572254923,1.150687597301505,1.6601307189542482,1.442870975550714,inf,inf,2.8166666666666664,1.136260751471254,,,,,,,,,,2.9260713568629306,2.9260713568629306,1.0,1.0,1.353975703807546,2.9260713568629306,1.3490498457634734
24,0.9667379450419878,1.152857351768719,1.0343836138078202,1.1092095042572663,1.1482349202286852,1.0723386765076406,1.1145358723292444,1.0339065554801898,1.0705882352941176,1.0351333976213437,,0.8082706766917293,1.2704918032786887,1.3888280893752851,,,,,,,,,,1.1482349202286852,1.1482349202286852,1.0,1.0,1.0419051339390895,1.1482349202286852,1.0629721513113344
25,0.9183257120853947,1.3648416713388645,1.0901331257702074,1.0901416738103533,1.35939050719769,1.0000078460967692,1.2519954565699702,1.0837988826815643,0.9090909090909091,0.8388003748828492,inf,2.208170254403131,1.5696202531645569,1.8254901960784313,,,,,,,,,,1.35939050719769,1.3593905071976902,1.0000000000000002,1.0000000000000002,1.0858528526824225,1.3593905071976904,1.6165338665138995
26,0.9395016855906726,1.3240499430055834,1.0641539506501774,1.2509189466378847,1.3196054567621325,1.175505617278024,1.2442278132751512,1.073446327683616,1.0,0.9315789473684211,inf,2.7443280977312394,1.721311475409836,1.096828900415701,,,,,,,,,,1.3196054567621323,1.3196054567621325,1.0,1.0,1.0786277869444905,1.3196054567621327,1.3132646693130665
27,0.9595341438682612,0.7223281505141887,1.040425963317019,1.01884500043432,0.722225086781044,0.9792569640239039,0.6942613663801467,1.0180288461538463,1.3095238095238093,1.2863621205652518,0.0,0.8535200179937021,0.8274483267716535,1.1286186186186185,,,,,,,,,,0.722225086781044,0.722225086781044,1.0,1.0,0.9272814064028105,0.722225086781044,1.0425745076625241
28,0.9831397618647694,1.0232732801619002,1.0171201846371112,1.0109709994113034,1.02069383077176,0.9939542383445458,1.006049452475887,1.0341463414634147,1.375,1.329549436795995,,1.280701754385965,0.9814043209876544,1.1556164383561645,,,,,,,,,,1.02069383077176,1.02069383077176,1.0,1.0,1.005235570341515,1.02069383077176,1.117092399566583
29,0.8735870855251939,1.7808763088212984,1.1451985881678064,1.6286063246302094,1.7739013119594662,1.4221169489955188,1.5550807958887434,1.1479591836734695,1.5789473684210524,1.375438596491228,inf,6.436274509803921,2.0089231699939507,1.1776591138692454,,,,,,,,,,1.7739013119594662,1.773901311959466,1.0,1.0,1.1565659160469002,1.7739013119594658,0.8041527883231491
30,0.9394431260835197,1.0449183492274898,1.064346709012233,0.8778198050460109,1.0393818273514253,0.8247498682127514,0.9817462039468428,1.0512820512820513,1.0,0.9512195121951219,inf,1.181809838472834,1.1493069306930692,1.562071038139076,,,,,,,,,,1.0393818273514253,1.0393818273514253,1.0,1.0,1.0099572072049017,1.0393818273514253,1.1221864570512885
31,0.9279781798892716,1.2408275798349342,1.077584966670552,1.0929520319867478,1.2359645902893146,1.0142607103217147,1.1514894007389989,1.0829145728643215,1.3722222222222222,1.267318044788975,inf,1.7966666666666669,1.1166064438422163,1.4430014430014428,,,,,,,,,,1.2359645902893144,1.2359645902893144,1.0,1.0,1.0546594093040453,1.2359645902893148,1.1525429472221185
32,0.9085475166426603,1.7451704719306584,1.1017282024572337,1.7456018921850842,1.7360616457070455,1.5844215200246095,1.584029833209182,1.085503525538658,1.561904761904762,1.4389215046749293,inf,6.378186968838527,2.2176346037507564,1.254499523426563,,,,,,,,,,1.7360616457070457,1.7360616457070455,0.9999999999999999,0.9999999999999999,1.1470982408928254,1.7360616457070452,1.4776672689049999
33,0.899481511308977,1.2518739360000282,1.1105414986490474,0.986201451756576,1.2489990499891608,0.8880365401394371,1.1272641626668238,1.1077763819095479,0.8625,0.7786199095022626,0.6936936936936937,2.3825075075075075,1.4869565217391303,1.3191094619666048,,,,,,,,,,1.2489990499891608,1.2489990499891608,1.0,1.0,1.0537142125909544,1.2489990499891608,1.412198251507846
34,0.9024188495102234,1.2195480482305472,1.1094624021813706,0.8472399253366931,1.2139806492678602,0.7636490679176534,1.0992243039636977,1.108040201005025,0.8210526315789474,0.7409560717919851,inf,1.6718926553672318,1.0192307692307692,1.5855207160703988,,,,,,,,,,1.2139806492678602,1.2139806492678602,1.0,1.0,1.048501394046288,1.2139806492678602,1.8754245781213106
35,0.9247819152567398,1.551338426106869,1.081510507160232,1.2095588204553085,1.5444419735388202,1.1183976599832568,1.4344182657829965,1.0731707317073171,1.1818181818181819,1.1012396694214877,inf,5.257009345794392,1.532258064516129,1.0242735042735043,,,,,,,,,,1.5444419735388197,1.5444419735388202,1.0,1.0,1.1192430667856006,1.5444419735388202,1.1042356116461631
36,1.018574161708894,0.9091511574872311,0.9817932405968887,3.118340795082985,0.9044316465034145,3.1761685313571375,0.9260108135746643,1.0011160714285714,3.083333333333333,3.0798997772828507,,,1.9531930333817127,1.2151639446143137,,,,,,,,,,0.9044316465034145,0.9044316465034146,1.0,1.0,0.9711516636228441,0.9044316465034147,0.44005223438467156
37,1.0077734648351946,1.000227830427142,0.9922123984784621,0.6756142730146415,0.9958569222227078,0.6809169831486508,1.008078342863858,0.9817813765182186,0.8035714285714286,0.8185990496596558,,0.0,0.7158249158249158,0.9041483343808925,,,,,,,,,,0.995856922222708,0.9958569222227078,0.9999999999999999,0.9999999999999999,0.9988303787713687,0.9958569222227078,0.9787790254666733
38,0.970449730480989,0.8621900839101957,1.0311461942320628,0.7455310872932726,0.856893418275787,0.723011933416133,0.8361471437494398,1.0232558139534884,0.8333333333333334,0.8143939393939394,,0.17857142857142858,0.8524590163934426,1.8842767295597485,,,,,,,,,,0.8568934182757871,0.856893418275787,1.0,1.0,0.9590633635990858,0.8568934182757868,1.5950988194008686
39,0.9892585492045052,1.161745852343949,1.0109673774764192,1.1196134478726296,1.1550857759009858,1.1074674483971347,1.149142770020855,1.0115830115830116,1.2000000000000002,1.1862595419847328,,inf,1.2245989304812834,1.4057524396507448,,,,,,,,,,1.1550857759009858,1.1550857759009858,1.0,1.0,1.0407905991878934,1.1550857759009858,0.414858193516478
40,0.9896849203033804,0.9474763864439493,1.0106611031325476,0.7436160903596132,0.9435638329455962,0.7357719497215955,0.9374817963284061,1.0,0.8571428571428572,0.8571428571428572,,,0.8541666666666666,1.4179194681574376,,,,,,,,,,0.9435638329455962,0.9435638329455961,1.0,1.0,0.9836151191890183,0.943563832945596,1.428022465229218
41,0.9653340216432551,1.0154951980200568,1.0353183783634912,1.3271166501590663,1.0099722160477633,1.2818439988062567,0.9808530585782045,1.0414141414141413,0.9615384615384616,0.9233374437709503,,0.3263157894736842,1.8313090418353575,1.4700460829493087,,,,,,,,,,1.0099722160477633,1.0099722160477633,1.0,1.0,1.0027526343149584,1.0099722160477635,0.19226299680623585
42,0.9575518623460935,0.9836061449126134,1.0446209489992881,0.9632387703359102,0.9779143023497873,0.9220935810930633,0.9415902745437348,1.04296875,1.1666666666666667,1.118601747815231,,,1.0238095238095237,1.396303076832221,,,,,,,,,,0.9779143023497872,0.9779143023497872,1.0,1.0,0.9938513778391174,0.9779143023497872,1.3043111953305768
43,1.0530804282090513,0.922934635373557,0.9491588706172278,1.0574967237622364,0.9160934217175212,1.1141409115174752,0.9723710861279342,0.9490276918848348,0.9230769230769231,0.9726562500000002,,0.21374045801526717,1.4642857142857142,1.1926279782247828,,,,,,,,,,0.9160934217175212,0.9160934217175212,0.9999999999999999,0.9999999999999999,0.9763444213693955,0.916093421717521,0.9504970095741188
44,0.9868834124391279,0.832624701126417,1.014299851465348,0.5288130215528944,0.8289915199972642,0.5213576793851694,0.8208860817509869,1.0096525096525095,0.49,0.4853361995846861,,0.10638297872340426,0.6695402298850575,1.1358333333333333,,,,,,,,,,0.8289915199972642,0.8289915199972643,1.0,1.0,0.9519680469498384,0.8289915199972644,1.980689193348887
45,0.9700326723852617,1.1591414711433905,1.030487063969791,0.707661428513064,1.1591648186334398,0.6867251396182932,1.12484814028651,1.0306622327111492,0.8928571428571428,0.8664119567778638,,0.0,0.6724137931034483,1.171945701357466,,,,,,,,,,1.1591648186334396,1.1591648186334396,1.0,1.0,1.0433699642146221,1.1591648186334393,0.8302230673109267
46,0.9847463239625251,0.9103259240842443,1.0156241465680003,0.9708213025792598,0.9070926793606915,0.9558865678327777,0.8963220592138997,1.02,0.9583333333333333,0.9395424836601307,,0.5295138888888888,0.9296788482834994,1.1445603576751118,,,,,,,,,,0.9070926793606915,0.9070926793606915,1.0,1.0,0.9743496602162536,0.9070926793606915,1.4166492330088603
47,0.9598419929252626,1.0605981325893672,1.0417244968771686,1.3425439653332396,1.0546651202193154,1.2887706421667207,1.0181177320904014,1.039801034430865,1.2019230769230766,1.155914648818651,,1.875,2.276041666666667,1.044944944944945,,,,,,,,,,1.0546651202193154,1.0546651202193154,1.0,1.0,1.014447931618749,1.0546651202193154,0.6866270175133753
48,0.9980891194941858,1.0131472605844594,1.001332949352668,1.1223695362779387,1.0062353893813873,1.1208754671294736,1.0117986123134357,0.9979423868312758,1.0,1.0020661157024793,,inf,1.4235880398671097,1.6183435739887353,,,,,,,,,,1.0062353893813873,1.0062353893813873,1.0,1.0,1.0017380888223566,1.0062353893813873,1.3968641572093747
49,0.9434517399005021,0.9856248995472187,1.0599120859990425,0.6254843316404441,0.9804945881302694,0.5901285020737175,0.9299119356849272,1.053267395537886,0.6491228070175439,0.6163117717959019,,0.4696969696969697,0.7024590163934425,1.1723052714398112,,,,,,,,,,0.9804945881302694,0.9804945881302694,1.0,1.0,0.9946818826873353,0.9804945881302694,1.3431069820782522
50,0.9173097077331793,1.2534743674999826,1.0904839862941944,0.983847970312948,1.2464252060170962,0.9022122329685698,1.1494661971656737,1.1008403361344539,0.7114624505928855,0.6462903177141477,,2.0066006600660065,1.3773584905660377,1.2477293719211824,,,,,,,,,,1.2464252060170962,1.246425206017096,1.0,1.0,1.0628036821484992,1.246425206017096,1.7705710820427165
51,0.9347543177073214,1.1574957672227733,1.0701444217390306,0.5849520301310123,1.1512579229745796,0.5466103623475793,1.0816257541592313,1.060041407867495,0.6666666666666666,0.62890625,,1.8144329896907216,0.7017543859649122,1.9255528143274856,,,,,,,,,,1.1512579229745796,1.1512579229745796,1.0000000000000002,1.0000000000000002,1.0395856769608725,1.1512579229745799,2.2046385398240087
52,0.9702898308979979,1.091391634575029,1.0300313837917219,1.0465392803314568,1.0844262907926887,1.0160265303898073,1.0595711451178378,1.0248015873015872,0.9166666666666667,0.894456689607605,,1.9212598425196847,1.3362994350282484,1.5020056689154468,,,,,,,,,,1.0844262907926887,1.0844262907926887,1.0,1.0,1.0223065448202524,1.0844262907926887,1.603115103527745
53,0.9615157320910305,0.9582251528492316,1.0399077658864135,0.6460386366932537,0.953292671541115,0.6212460930538131,0.9214520597722857,1.0338013027256054,0.6000000000000001,0.5803846153846154,,0.41895604395604397,0.8306451612903226,1.3620812544547398,,,,,,,,,,0.9532926715411151,0.953292671541115,0.9999999999999999,0.9999999999999999,0.9873262393751462,0.9532926715411152,1.1360969415369393
54,0.97073957460705,1.3193445153714083,1.0315071111065648,1.355119432779769,1.3134658425665358,1.3137278285717868,1.2790455608125808,1.0321931589537223,1.0333333333333332,1.0010454665207522,inf,3.738693467336684,1.62,1.2314184471442535,,,,,,,,,,1.3134658425665358,1.3134658425665355,0.9999999999999999,0.9999999999999999,1.0753390213320224,1.3134658425665355,0.9173314407061948
55,1.014861328275242,1.2674432053019973,0.9888013949540451,1.4177088675745555,1.2692036287489459,1.4337651762920869,1.2817974984216143,0.9961089494163424,1.2857142857142856,1.2907366071428572,inf,2.8112373737373737,0.9945652173913043,1.566848816029144,,,,,,,,,,1.2692036287489459,1.2692036287489459,1.0,1.0,1.0626795812358298,1.2692036287489457,1.0550262505961103
56,1.0010240187229908,1.2280119664978841,0.9987037964645034,1.93855972799904,1.21932928415927,1.941075757258265,1.229605785864789,1.0058195981034093,1.8590909090909091,1.848334574346135,,2.991329479768786,1.897727272727273,1.5855643656716416,,,,,,,,,,1.21932928415927,1.2193292841592698,1.0,1.0,1.0547021082336354,1.21932928415927,0.36435587143726184
57,0.9623192151332318,0.9380607752696108,1.0386658795749706,0.8761239148323356,0.9331033156804709,0.8435089012367016,0.9031400700805461,1.027158124482577,0.9411764705882353,0.9162931756145765,,0.7250000000000001,1.0757062146892655,1.4152958152958153,,,,,,,,,,0.9331033156804709,0.9331033156804709,1.0,1.0,0.982190326695195,0.9331033156804709,0.6199463009934243
58,0.9740421329473458,0.9328420197857852,1.0255163922835324,0.8549441895840484,0.928597831799099,0.8336719795902447,0.9096317177611084,1.0187435809654228,1.1071428571428572,1.0868853231544968,,0.39832089552238803,0.7956095481670928,1.2386274927258534,,,,,,,,,,0.928597831799099,0.928597831799099,1.0,1.0,0.9803049334400511,0.9285978317990988,1.1683786049903908
59,0.9609343416582579,1.1603048811529384,1.0412488016391306,0.8422043265245895,1.154641795844764,0.8088406202233263,1.1143397037541747,1.0475113122171946,0.7777777777777778,0.7425040636247533,,inf,0.9111062335381914,1.3557357887112853,,,,,,,,,,1.1546417958447641,1.154641795844764,1.0,1.0,1.043525982403105,1.1546417958447641,0.816385855872526
60,0.9929237741485613,1.0266149939716185,1.0067373365886825,0.9205777706195899,1.0210881066826718,0.9144170287586798,1.0197445324058263,1.0140249124897593,0.9705882352941176,0.957133917396746,,inf,1.1727272727272728,1.1476443610589953,,,,,,,,,,1.0210881066826722,1.021088106682672,1.0,1.0,1.0059270614922249,1.0210881066826718,0.5805083153204372
61,0.9716481126608292,1.081695050843516,1.0288794953764728,2.136979991713142,1.0758934328881542,2.0769973561687216,1.0513330819638091,1.0414746543778801,1.9166666666666665,1.840339233038348,,0.0,2.4642857142857144,1.2822315347483966,,,,,,,,,,1.075893432888154,1.0758934328881542,1.0000000000000002,1.0000000000000002,1.0221516623282894,1.075893432888154,0.6126148642628113
62,0.9395384957688175,1.2461431665412044,1.064603852410296,0.9121605017284695,1.2452275383769393,0.8568129312510848,1.1705238270204807,1.0691244239631337,0.7638888888888888,0.7144995210727969,,,0.943010752688172,1.32124849939976,,,,,,,,,,1.2452275383769391,1.2452275383769391,1.0,1.0,1.070626019143575,1.2452275383769393,0.8429225907175768
63,0.9638838838785425,1.1333582328484786,1.036882530652627,0.973152493218147,1.1323731082600146,0.9386099071159885,1.0931235771516739,1.0356515465211118,0.90625,0.8754186043110759,,0.8248197115384616,0.9811320754716981,1.32172131147541,,,,,,,,,,1.1323731082600146,1.1323731082600146,1.0,1.0,1.0329618585901095,1.1323731082600146,0.6328146872216054
64,0.9647380735559481,1.1971348639607016,1.0365086629617521,1.0618963265496277,1.1936289655603178,1.0244933977096358,1.1549683269745705,1.0362903225806452,1.282051282051282,1.2371545445475407,,2.447368421052632,1.0341905318527176,1.2927436051559473,,,,,,,,,,1.1936289655603178,1.1936289655603178,0.9999999999999998,0.9999999999999998,1.0475702294458515,1.1936289655603176,0.5236812744804852
65,0.9577611806765651,1.2545103111771196,1.0442271197620467,1.7716851771300202,1.247374687244525,1.6966477998536036,1.2013771979047374,1.049808429118774,1.476190476190476,1.4061522419186652,inf,2.4263313609467456,2.3466463414634147,1.1370826913199794,,,,,,,,,,1.247374687244525,1.2473746872445253,1.0,1.0,1.0561648420399221,1.2473746872445253,0.3492777477293572
66,0.983552231531197,1.1124749229641124,1.0171977930735716,1.3207390355367232,1.1043847742585702,1.2984094765360576,1.0936665761596767,1.0151515151515151,1.1111111111111112,1.0945273631840797,inf,1.12181668929834,1.7016129032258065,1.989028213166144,,,,,,,,,,1.1043847742585702,1.1043847742585702,1.0,1.0,1.0245957164816328,1.1043847742585706,0.599657889730389
67,0.9451109605396767,0.8758321128612334,1.0572563282881002,0.7770245168930945,0.8711964600314411,0.7349443045200263,0.8284009179489827,1.0493230174081238,0.8181818181818182,0.7797241646449613,0.375,0.6294642857142858,0.8666666666666667,1.2701612903225805,,,,,,,,,,0.8711964600314411,0.871196460031441,1.0,1.0,0.966608002254117,0.8711964600314412,1.3129455022569436
68,0.9481329142709849,1.1333052518192548,1.0542068789973327,0.894872829508213,1.1263342632296336,0.8488588410268543,1.0750311674091462,1.0588235294117647,0.9307359307359306,0.879028379028379,,2.1860068259385668,1.022278314310799,1.4607163742690061,,,,,,,,,,1.1263342632296336,1.1263342632296336,0.9999999999999999,0.9999999999999999,1.0307598678563288,1.1263342632296331,1.2215275712875888
69,0.9836403012066226,1.0192298091412606,1.0161830802644478,1.2783415156162408,1.0133648925908196,1.2579834681793458,1.0029982086259692,1.0193798449612403,1.2857142857142856,1.2612710483432918,,1.413612565445026,1.5258620689655173,1.31140642303433,,,,,,,,,,1.0133648925908194,1.0133648925908194,1.0,1.0,1.0034081064682074,1.0133648925908196,0.9295407948161756
70,0.9330042254052713,1.0551755839417933,1.071709102370265,0.7405681695349103,1.0488065836284926,0.6910160199492399,0.9845725551092144,1.057658255865427,0.8694444444444445,0.822013366750209,,1.161290322580645,1.2173913043478262,1.5488953676708779,,,,,,,,,,1.0488065836284926,1.0488065836284926,1.0000000000000002,1.0000000000000002,1.0121982131590697,1.048806583628493,1.2056275850329166
71,0.9731771178652151,1.0347356144808162,1.0274529051387993,1.3869979100453982,1.0288079464713284,1.3499383448384394,1.0070883399288872,1.0259615384615384,1.1741071428571428,1.1442958931997025,,0.8286516853932585,1.5192307692307692,1.8874364199678577,,,,,,,,,,1.0288079464713284,1.0288079464713287,1.0,1.0,1.0073626309117523,1.0288079464713287,0.9622466100442797
72,1.0387743311600892,1.009798519961731,0.9617758190347163,0.8278201975660205,1.0074335316109717,0.8607205254846904,1.0499312335172348,0.9572864321608041,0.6666666666666666,0.6964177459355194,,inf,1.060153776571687,1.3827369439071568,,,,,,,,,,1.0074335316109715,1.0074335316109717,1.0,1.0,1.0023126262680366,1.007433531610972,1.119392385857188
73,1.0422631656588999,0.8730366576048592,0.9597823583602026,0.9261930434781938,0.8693413012926559,0.9650031962044014,0.9096194048580457,0.9596412556053812,0.8571428571428572,0.8931909212283043,,0.0,1.08250276854928,0.9822433321154549,,,,,,,,,,0.8693413012926559,0.8693413012926559,1.0,1.0,0.9593063243571675,0.8693413012926559,0.916341905296624
74,0.9757446948135196,1.447234036413623,1.0246178244943756,1.4483940266512139,1.4386430763558224,1.413594464347823,1.4124624826373253,1.0227895392278954,1.3333333333333333,1.3036507936507937,,inf,1.8513513513513513,1.3564560439560438,,,,,,,,,,1.4386430763558227,1.4386430763558227,1.0,1.0,1.1174383664468386,1.4386430763558227,0.6919884636639109
75,1.0318342881736027,0.8289741992195662,0.9693539051566789,0.8056433240456906,0.8247812388436186,0.8311137562372061,0.8551823190356344,0.9763486014503477,0.9285714285714286,0.9509125235997483,,0.0,0.7540322580645161,1.3493927125506073,,,,,,,,,,0.8247812388436186,0.8247812388436186,1.0,1.0,0.945004521853272,0.8247812388436186,1.1242017521938625
76,1.0219961582263895,0.9327458455996557,0.9781469137024756,0.8791798644935054,0.9285477285163295,0.898821727938361,0.9535839477122675,0.9780793319415448,0.8083333333333333,0.8263869525996392,,inf,1.0335858585858586,1.374263468013468,,,,,,,,,,0.9285477285163295,0.9285477285163295,1.0,1.0,0.979400474364824,0.9285477285163295,1.3795144035212263
77,1.0213046764730094,0.9785844707901991,0.980654703489042,0.9834842873019489,0.9739129779185396,1.0028854307258612,0.9978890310116474,0.9781249999999999,0.9511904761904761,0.9724629133965432,,0.9320388349514563,1.1825396825396826,1.2138592080452546,,,,,,,,,,0.9739129779185397,0.9739129779185396,0.9999999999999999,0.9999999999999999,0.992835638100123,0.9739129779185394,0.0
78,0.9715093658184648,1.094712884235173,1.029223074556783,1.0381665606027002,1.0889490215114184,1.0086959229351284,1.0636313760624738,1.0319876341152936,0.9444444444444444,0.9150596877869606,,inf,1.2869897959183674,1.436851971557854,,,,,,,,,,1.0889490215114184,1.0889490215114184,1.0,1.0,1.024484198597305,1.0889490215114184,1.269430604296692
79,1.0264890540109601,0.9293660777649206,0.9737201110707612,1.3059106657268251,0.9238200266678894,1.3411560863223904,0.9544488811632584,0.9735274597643936,1.3928571428571428,1.4305140466228332,,0.7322695035460993,1.4130434782608696,1.3931560376753271,,,,,,,,,,0.9238200266678895,0.9238200266678894,1.0,1.0,0.9786225514372384,0.9238200266678893,0.4889590090395232
80,0.9905255229045191,1.0345496795144422,1.0086769989528235,1.1640796338727237,1.0291028885784224,1.154065916039634,1.0256505559942763,1.0071953084729721,1.0666666666666667,1.059047619047619,,1.7222222222222223,1.84,1.4465725806451613,,,,,,,,,,1.0291028885784224,1.0291028885784224,1.0000000000000002,1.0000000000000002,1.007626763528177,1.0291028885784228,0.8686468113266272
81,0.9597733583545144,0.9614366671558627,1.0417174011191221,0.7599172882120576,0.9611556825573315,0.7294850212678945,0.9229343205949807,1.0372093023255815,0.7857142857142857,0.7575272261370916,,,0.9318181818181818,1.0013888888888889,,,,,,,,,,0.9611556825573315,0.9611556825573315,1.0,1.0,0.9880060620726416,0.9611556825573315,1.2730183063325915
82,0.9690069757994864,0.9472995044372436,1.030938990531786,0.9421011734701059,0.9464146976432367,0.9138282498988082,0.9188705763748455,1.029274004683841,0.6595238095238095,0.6407221129288327,,,1.186923076923077,1.204761904761905,,,,,,,,,,0.9464146976432367,0.9464146976432366,1.0,1.0,0.9832937688454502,0.9464146976432366,1.1728427151762921
83,0.9804239957111951,1.0048164160144752,1.0195830042732634,0.8620900809070156,0.9999891723588894,0.8455319758263435,0.9855168306620194,1.0217653727457856,0.8285714285714286,0.8108904548366432,,inf,1.1956521739130435,1.2048282727725237,,,,,,,,,,0.9999891723588894,0.9999891723588894,1.0,1.0,0.9999972220942661,0.9999891723588896,1.1934219057288777
84,1.0619508760049838,0.8500843835528211,0.9409576096911645,2.2640704948754102,0.845718488539443,2.406134213639155,0.9034251437104185,0.9498339564110723,1.625,1.7108763693270737,,,2.2729419703103915,1.713902476413451,,,,,,,,,,0.8457184885394431,0.8457184885394431,1.0,1.0,0.9499747181156069,0.845718488539443,0.5740369381867083
85,0.9744355255909154,0.7234435751505026,1.026722425281076,0.7164618804840429,0.7202535181207469,0.6978145094780885,0.704614405676661,1.0387793427230048,0.75,0.722002262443439,,0.06153846153846154,0.8836726998491704,1.2755155723905724,,,,,,,,,,0.7202535181207468,0.7202535181207469,1.0,1.0,0.9071208675981218,0.7202535181207469,1.1960745993170485
86,0.9581515131820368,0.8979239680632565,1.04501353043592,0.857486903449497,0.8929982487979817,0.8205511037343831,0.8592463868986955,1.0458715596330275,0.7777777777777778,0.7436647173489279,,0.30869565217391304,1.0917508417508417,1.3958160729080364,,,,,,,,,,0.8929982487979817,0.8929982487979816,1.0,1.0,0.9675492114571781,0.8929982487979815,0.8039266628811321
87,1.0032609413012459,1.1046214799108067,0.9972994453906284,1.5705503261895863,1.1007898650830832,1.5748031681441712,1.1076126483537165,1.0045454545454546,1.6,1.5927601809954752,,,1.515625,1.281055900621118,,,,,,,,,,1.1007898650830832,1.1007898650830832,1.0,1.0,1.0306288157833974,1.1007898650830834,0.7080548721347539
88,0.9173248057191523,1.2223549402571017,1.0898642504310376,0.7874884502933184,1.2166521482206494,0.7225564522064678,1.1215661593459578,1.0707964601769913,1.125,1.0506198347107438,,4.360594795539033,1.1146853146853146,1.8030797101449276,,,,,,,,,,1.2166521482206494,1.2166521482206494,1.0,1.0,1.0554595679180632,1.2166521482206494,1.0017215111967006
89,1.0430042049505346,0.7941508027714331,0.9592358168037602,0.9969505067256353,0.7895045398652054,1.0393174644769825,0.8278994676006486,0.9598393574297188,1.0,1.0418410041841004,,0.28384094754653133,0.9686259920634921,1.51976856316297,,,,,,,,,,0.7895045398652054,0.7895045398652054,1.0,1.0,0.9386226650976794,0.7895045398652054,1.0188550667101373
90,1.0502959677736696,0.9030162745590047,0.9527364247744019,1.6950577491440866,0.8998216965429744,1.7791465447880017,0.9478133005650575,0.9528594650509827,2.0069444444444446,2.1065538194444446,,0.6875,1.8285714285714287,1.2109683794466404,,,,,,,,,,0.8998216965429745,0.8998216965429744,0.9999999999999999,0.9999999999999999,0.9703269207396841,0.8998216965429743,0.6030200164352559
91,0.9755371338772131,0.8690716837636869,1.0253581743300368,0.9046043048066463,0.8664491836818302,0.8822324992900259,0.8475786369300009,1.0144927536231885,0.9166666666666666,0.9035714285714286,0.9433962264150944,0.660377358490566,1.0001959247648904,1.6761249999999999,,,,,,,,,,0.8664491836818302,0.8664491836818302,1.0000000000000002,1.0000000000000002,0.9639476802512061,0.8664491836818304,1.5258007881714781
92,0.983007449875662,0.8169504509197403,1.0178955858298635,0.885848701624089,0.8125887895725554,0.870274619368091,0.8025876769824992,1.025485436893204,0.840909090909091,0.8199856791164646,inf,0.40431266846361186,1.0467852257181942,1.6206885758998435,,,,,,,,,,0.8125887895725555,0.8125887895725555,1.0,1.0,0.9467826703637146,0.8125887895725554,1.0209652421919533
93,1.0276158554148103,0.5714820435221308,0.972794335347356,0.7062982561160309,0.5688478568232485,0.7260509807023997,0.5874647581135296,0.9857594222523133,1.1,1.1164018952062431,0.0,0.4411764705882353,0.7664914450628736,1.4133848133848133,,,,,,,,,,0.5688478568232485,0.5688478568232485,1.0,1.0,0.8559728160505687,0.5688478568232486,1.3604778628475795
94,1.0024698951240683,0.7792442340930188,0.9976741792734383,0.7690636069127581,0.7760769403047307,0.7708564808932241,0.7810608415870877,1.0083220491988265,0.875,0.8678773584905661,0.0,0.8346036585365855,0.679671656204732,1.2083852220838522,,,,,,,,,,0.7760769403047307,0.7760769403047306,1.0,1.0,0.9344523355133638,0.7760769403047306,1.6789905664263192
95,1.0929293151471398,0.8028739672542935,0.9142395222353868,1.0732122557387394,0.7986580497473214,1.1738851851130632,0.8781878181052545,0.9096715905497583,1.0526315789473684,1.1571569109690114,inf,0.4503275109170306,1.1556942053930004,1.7378005809656405,,,,,,,,,,0.7986580497473212,0.7986580497473212,1.0,1.0,0.9428647254622153,0.7986580497473212,0.8392966825273451
96,0.9769603427689171,0.7573774443084891,1.0237074840100835,0.8388690867735298,0.7536634459975038,0.8194430708160754,0.7398483680304132,1.028301886792453,0.8035714285714285,0.7814547837483616,0.5608407079646018,0.2793979619200858,1.1150000000000002,1.0393022484677217,,,,,,,,,,0.7536634459975038,0.7536634459975039,1.0000000000000002,1.0000000000000002,0.9306424086175481,0.753663445997504,1.2761925045495341
97,1.1647514500142608,0.5237937204580255,0.858838631842776,0.990934526828203,0.5206761198663288,1.1538250821785918,0.6098851390611038,0.8548582594067062,0.8983333333333333,1.0508823529411764,0.0,0.2649725274725275,1.3662790697674418,1.6777807047884108,,,,,,,,,,0.5206761198663288,0.5206761198663288,0.9999999999999999,0.9999999999999999,0.8354995847158491,0.5206761198663287,0.911777766459781
98,1.0641048703929297,0.9127215604585772,0.940201800051205,1.3875035859523734,0.9087072994690768,1.4757508291058445,0.9707719772594234,0.95,1.1625,1.223684210526316,inf,0.3072625698324022,1.697142857142857,0.9254775747508305,,,,,,,,,,0.9087072994690768,0.9087072994690768,1.0,1.0,0.9749052042727868,0.9087072994690768,1.1699147169569226
99,0.9670906360475178,0.7420192694442429,1.0327804083258671,0.5837405092349703,0.7424396125389199,0.5652126732007539,0.7184757431374758,1.0416666666666667,0.5714285714285714,0.5485714285714285,0.0,0.27254901960784317,0.6839561855670103,1.0692246835443038,,,,,,,,,,0.7424396125389199,0.7424396125389198,0.9999999999999998,0.9999999999999998,0.9228362087020747,0.7424396125389197,0.8351670165379184
100,0.9905239558694161,1.0473626058511378,1.009819651351504,0.7730776416173486,1.0461097742719998,0.765560327969369,1.037178431517794,1.0448369565217392,0.8430769230769231,0.8069032634032633,0.6349206349206349,1.0582010582010581,1.0112359550561798,1.275,,,,,,,,,,1.0461097742719998,1.0461097742719998,0.9999999999999999,0.9999999999999999,1.012132210984816,1.0461097742719994,1.0482853630048559
101,0.958858001840496,1.1911854574175718,1.04383846534119,1.6935938198302547,1.185481275602445,1.6224673028070171,1.1411588113261788,1.0541871921182266,1.55,1.4703271028037386,inf,2.539170506912443,1.7197763801537387,1.4957685406698564,,,,,,,,,,1.185481275602445,1.185481275602445,1.0,1.0,1.0476098922616923,1.1854812756024453,0.9075850480905336
102,1.044347704486165,1.321208724842657,0.9579988655687425,1.5701984720499,1.314601492449073,1.6390399491687613,1.3791340374375136,0.959349593495935,1.6470588235294117,1.7168494516450648,inf,inf,1.9827586206896552,1.5573500329597891,,,,,,,,,,1.314601492449073,1.314601492449073,0.9999999999999999,0.9999999999999999,1.0811146332972537,1.3146014924490728,0.5612063712785135
103,0.9969002710601891,0.9066369219014427,1.0045996206045424,0.9579901988102808,0.9024366816959677,0.9536039822847899,0.9024858294848366,1.0012165450121655,0.7641414141414142,0.7632036383249976,0.6244131455399062,0.6973965002134015,1.3110347985347985,0.9934969635627531,,,,,,,,,,0.9024366816959679,0.9024366816959678,1.0,1.0,0.9754935971303802,0.9024366816959679,0.9384377439326532
104,1.0544799444289004,0.47964154902023015,0.9470622714365045,0.5693216558503063,0.47701244523568725,0.6011449051722013,0.506451994336021,0.9872773536895675,0.5074626865671642,0.5140021541775658,0.09290953545232274,0.21026894865525672,0.8643410852713178,1.7113783797481186,,,,,,,,,,0.4770124452356872,0.4770124452356872,1.0,1.0,0.8347067313179017,0.4770124452356872,1.726413656984625
105,0.9307908459723668,1.134720984435612,1.0753178012061262,1.071822566286183,1.1297589198599656,0.99674957959775,1.0552424438271704,1.1136363636363638,1.0833333333333333,0.9727905175859313,inf,1.0833333333333333,1.28125,1.415909090909091,,,,,,,,,,1.1297589198599656,1.1297589198599656,1.0,1.0,1.032219464262499,1.1297589198599656,0.671626293894138
106,0.8823239851896761,0.9429362654832063,1.1335319715154686,0.7172507079732712,0.938717778751357,0.632757370954167,0.8318568256484677,1.17237012987013,0.8875000000000001,0.7569980865991072,0.53125,0.9083426339285714,0.9311926605504588,1.4206437291897893,,,,,,,,,,0.938717778751357,0.938717778751357,0.9999999999999999,0.9999999999999999,0.9836018161946328,0.9387177787513569,2.253490947083149
107,1.0652065185080057,0.9500629980506237,0.9384326015187848,1.60664175948995,0.9452300435469048,1.7120481891741774,1.012394080239219,0.9581933137901801,1.3333333333333335,1.3915094339622642,inf,0.6419213973799127,1.847457627118644,1.153875968992248,,,,,,,,,,0.9452300435469048,0.9452300435469048,1.0,1.0,0.9848134862261742,0.9452300435469048,0.6535810787838612
108,0.9964423576174963,0.9444161799711169,1.003637764589955,1.2065137098441276,0.9383653548626669,1.2021406053179549,0.9409930687063837,1.0019685039370079,1.3194444444444444,1.3169934640522876,inf,0.6876456876456878,1.8157894736842106,1.5152380695750587,,,,,,,,,,0.9383653548626671,0.9383653548626669,0.9999999999999999,0.9999999999999999,0.9845202206449194,0.9383653548626669,0.8952446741137012
109,0.9432613134462255,1.040698215972378,1.0605932194959882,0.5980141104632442,1.0363519912889927,0.5638487022832661,0.9812416267067363,1.0262626262626262,0.8421052631578947,0.8205553253211769,,0.7769296013570822,0.9091243020863944,1.6082589285714288,,,,,,,,,,1.036351991288993,1.036351991288993,1.0,1.0,1.0091380510533625,1.036351991288993,1.6397046964992277
110,0.8502690115014544,1.1050561545187303,1.1737240907313258,0.5083922243314882,1.1040259311725986,0.4331445766054937,0.9414956745330073,1.2048780487804878,0.4074074074074074,0.3381316539211276,inf,0.9336226851851852,0.9345794392523364,1.2757689440690188,,,,,,,,,,1.1040259311725986,1.1040259311725986,1.0,1.0,1.0257414391335036,1.1040259311725984,1.9166148928680433
111,0.8851290531542673,0.9829203135255982,1.1271225303054115,0.40751810285098,0.9838230590755063,0.36155617799550316,0.872061674919569,1.117960879974703,0.32074592074592073,0.28691979756618535,inf,0.7080745341614908,0.6693989071038251,1.0079440235690236,,,,,,,,,,0.9838230590755063,0.9838230590755062,1.0,1.0,0.9958837460442767,0.983823059075506,2.696932063264298
112,0.9769608216954924,0.8438775235105606,1.0229607122743003,0.7195775404525393,0.8403358197046,0.7034263601258282,0.8249363902729163,1.0187110187110187,0.5960144927536233,0.5850672877846792,,0.30638297872340425,0.88270911360799,1.4833209325396826,,,,,,,,,,0.8403358197045999,0.8403358197045999,1.0,1.0,0.9545757334897301,0.8403358197045999,1.7005492445636063
113,0.9136970671058846,1.3966773049293426,1.0940558983471775,1.0357899218158035,1.3901959628639267,0.9467431448252341,1.2766050683875878,1.0625,1.3181818181818181,1.2406417112299466,inf,3.757853403141361,1.3707865168539326,1.665318727818728,,,,,,,,,,1.3901959628639267,1.3901959628639269,1.0000000000000002,1.0000000000000002,1.0870409424948382,1.390195962863927,1.078855533043166
114,0.9976023610147636,1.3407796347264114,1.0027459827106262,2.0327529573845755,1.3334564575717636,2.0271863387471583,1.3371079593876922,0.9828629032258065,1.6785714285714284,1.707803355630467,inf,2.113636363636364,2.8085106382978724,1.596774193548387,,,,,,,,,,1.3334564575717636,1.3334564575717636,1.0,1.0,1.076871092287608,1.3334564575717636,0.5544531019909547
115,0.9933140147378716,1.0355553415797607,1.0089965894125998,0.9380992500513133,1.0332793572075973,0.9297348077236214,1.0263219444404883,1.0168067226890756,1.090909090909091,1.072877535687453,,2.5427710843373497,1.3488372093023255,2.286657559198543,,,,,,,,,,1.0332793572075973,1.0332793572075973,1.0,1.0,1.0087438428685873,1.0332793572075976,1.175667876116863
116,0.9284387113991337,0.7600542467785192,1.0783986857353896,0.9030347604746924,0.7573617978060682,0.8373848859606949,0.7047989364529106,1.048888888888889,0.8461538461538461,0.8067144719687093,0.0,0.482258064516129,1.3037974683544304,1.158288043478261,,,,,,,,,,0.7573617978060682,0.7573617978060682,1.0,1.0,0.9307470140509392,0.7573617978060682,0.9584609586113568
117,0.9173152030174729,0.9943001823859913,1.0886490340982755,0.5102408465761277,0.9944991603990043,0.4686917778888874,0.9133339766076367,1.0575396825396826,0.6538461538461539,0.6182049765728064,,0.7083333333333334,0.6210175145954963,1.0588235294117647,,,,,,,,,,0.9944991603990043,0.9944991603990042,0.9999999999999998,0.9999999999999998,0.998601339135614,0.9944991603990041,1.034282703354655
118,0.9676842064451284,1.0116465198403404,1.0324807180397242,0.6508502792636629,1.0085053217707252,0.6303752388706805,0.9798212229677861,1.0076372575798962,0.7999999999999999,0.793939393939394,,1.251646903820817,1.0346153846153845,1.271969696969697,,,,,,,,,,1.0085053217707252,1.0085053217707252,1.0,1.0,1.0020140650309275,1.0085053217707254,1.30323697638792
119,0.9679447410882344,1.1758850517444455,1.035511535772547,1.002768435459432,1.171376497855933,0.9683797821830279,1.1355595868540203,1.0231704803133375,1.7261904761904763,1.6871549344375434,inf,1.176243894993895,1.1443298969072164,1.4553752535496958,,,,,,,,,,1.171376497855933,1.171376497855933,1.0,1.0,1.0388199542908265,1.171376497855933,0.8857552988016002
120,1.0129157164416078,1.182459663584309,0.9864185200314532,1.4575756435021239,1.174189581456946,1.477644239136596,1.198740331382469,0.9941329656862745,1.3333333333333335,1.341207349081365,inf,1.1934811827956993,2.1215932914046123,1.6509533898305087,,,,,,,,,,1.1741895814569459,1.1741895814569459,1.0,1.0,1.0411002364545074,1.1741895814569463,0.767012856844653
121,0.8701284976906749,1.468853595040482,1.1495058163435643,0.5268462043061088,1.4619008525864896,0.45832408746041964,1.2778131038194513,1.092,0.6153846153846154,0.5635390250774867,inf,3.421383647798742,0.8271028037383177,1.7156137992831542,,,,,,,,,,1.4619008525864894,1.4619008525864894,1.0,1.0,1.0979069686067573,1.4619008525864894,1.916159849380529
122,0.9559866971400821,1.0856847621466628,1.047384067186868,0.6969365545459754,1.078424523508963,0.6654068706791129,1.0365679564542791,1.0406001003827092,0.7773809523809523,0.7471811386151419,,1.5352348993288591,0.8349056603773586,1.4470440689041002,,,,,,,,,,1.078424523508963,1.078424523508963,0.9999999999999999,0.9999999999999999,1.0186687064779378,1.078424523508963,1.1841332818031343
123,0.9784648755586636,0.8862012615905934,1.0232732925384918,1.0540443676272249,0.8818447599941187,1.03007121837168,0.8660455243612208,1.0184847871550968,1.2916666666666667,1.268313172043011,,0.92925,1.1029411764705883,1.2322241558121956,,,,,,,,,,0.8818447599941187,0.8818447599941186,1.0,1.0,0.9687869007222435,0.8818447599941184,1.3788441299088652
124,0.8868866976922398,0.7844890704547329,1.1280992870942947,0.5456963804334902,0.7803932678002092,0.4837308086942146,0.695407823965019,1.0824742268041236,0.5116279069767442,0.47264844793615035,0.0,0.8257645968489342,0.7777777777777778,1.4262749445676275,,,,,,,,,,0.7803932678002091,0.7803932678002092,1.0,1.0,0.9419680392439325,0.7803932678002092,1.7948202748134152
125,0.9438084370118176,0.9511286217045349,1.0591449943393458,0.9122148470758228,0.9462224166124442,0.8612747564792369,0.8980155000381347,1.051975051975052,1.0476190476190474,0.9958592132505177,,0.8499108734402853,1.0923076923076922,1.2520501852659112,,,,,,,,,,0.9462224166124443,0.9462224166124442,0.9999999999999999,0.9999999999999999,0.9859346300891505,0.946222416612444,1.4909302732129324
126,0.9791015203277831,0.8755687503182674,1.0204775861695679,0.8043243293718254,0.8719478687056872,0.7884877635883762,0.8585717133131001,1.0405048959976875,0.8099089989888777,0.7784878951485206,0.20625000000000002,0.9448397435897435,0.8953027730616865,1.0607280750137893,,,,,,,,,,0.8719478687056871,0.8719478687056872,1.0,1.0,0.9663301300967433,0.8719478687056872,0.9531017635355432
127,1.0000292396505206,0.8329385867965684,1.0020565154633356,0.904819009495252,0.830560168480927,0.9029620938854706,0.8312291729848638,0.9906542056074766,0.8235294117647058,0.8312985571587125,,0.48610306890561666,0.9817789677227429,1.2407797681770285,,,,,,,,,,0.830560168480927,0.8305601684809271,1.0000000000000002,1.0000000000000002,0.9532224418110933,0.8305601684809272,1.1120706148034405
128,1.0390879298787943,0.862658868900299,0.9612327550733112,0.8625810901945893,0.8591911194510633,0.8973696387705827,0.8974505543503933,0.9433760683760684,0.859375,0.9109393757503002,,0.5916666666666667,1.1304347826086956,1.5036425449247206,,,,,,,,,,0.8591911194510633,0.8591911194510633,1.0,1.0,0.9617103223146088,0.8591911194510633,1.2221377848594823
129,1.0145950807870792,0.9975946996500087,0.9855609589967296,0.9598194280706284,0.9930747384928958,0.973881340681042,1.0122100419496416,0.9840182648401826,1.0454545454545454,1.0623326286116985,,1.3461538461538463,0.9466666666666667,1.3401785714285714,,,,,,,,,,0.9930747384928958,0.993074738492896,1.0,1.0,0.9979434956826958,0.993074738492896,1.1067449871559976
130,1.0338133745179459,0.7507447023667158,0.9656963441111752,0.6848205083754982,0.7498216637412012,0.7091468374624588,0.7774128036672847,0.9539473684210527,0.7000000000000001,0.7338773094322074,,0.31823899371069186,0.8662790697674418,1.406446776611694,,,,,,,,,,0.7498216637412012,0.7498216637412012,1.0,1.0,0.9239494478741281,0.7498216637412012,1.3207885716808212
131,1.0084892625129784,1.3686613274164023,0.9917261573765304,1.1085853325866801,1.3633446326905307,1.1178341161427907,1.3800798912443732,0.9837209302325581,1.09375,1.111780995707771,inf,inf,1.4254578754578755,1.129824958620905,,,,,,,,,,1.3633446326905307,1.3633446326905307,0.9999999999999999,0.9999999999999999,1.0868646742035586,1.3633446326905307,1.1863062955961818
132,1.1536020557430082,0.7210254431503387,0.8675581393280333,1.3390267861393026,0.7172552874785771,1.5434432868976886,0.8310975489306209,0.8712871287128713,2.1333333333333333,2.4484848484848487,,0.445945945945946,1.08,1.6400961538461538,,,,,,,,,,0.7172552874785771,0.7172552874785771,1.0,1.0,0.9130684216350835,0.7172552874785771,0.8661108355960334
133,0.9889270496217297,0.8913758386800132,1.0098151179796127,1.1574630478286738,0.8876737056712993,1.1462128336367825,0.882711917071942,1.0424311926605505,1.3636363636363635,1.308132396238123,,0.2606666666666667,1.2592592592592593,1.641304347826087,,,,,,,,,,0.8876737056712994,0.8876737056712994,1.0,1.0,0.9675804991387655,0.8876737056712994,0.9396790010639211
134,0.9759658492576191,0.7146977316259915,1.0229813256583389,0.6482695032032525,0.7133900609919686,0.6337060970160516,0.6986420120289569,1.0401785714285714,0.5058139534883721,0.48627607545663243,,0.3050379572118702,0.8673469387755102,0.7996001031991744,,,,,,,,,,0.7133900609919686,0.7133900609919687,1.0000000000000002,1.0000000000000002,0.9146005880298034,0.7133900609919687,0.6790289391445317
135,1.0023255387356047,0.7273449489874012,0.9966728712936237,0.7540725453358056,0.7273727923865838,0.7565898170350149,0.729772997677111,0.9751160356907436,0.9231884057971015,0.9467576230788197,0.0,0.736328125,0.839041095890411,1.2114942528735633,,,,,,,,,,0.7273727923865838,0.7273727923865837,0.9999999999999999,0.9999999999999999,0.9284253578110262,0.7273727923865836,1.2303525710884107
136,0.9565319224944362,0.7536986974948969,1.0440667139333177,0.6861489726668615,0.7514977766766547,0.6571888208962519,0.7218874880662405,1.0296296296296297,1.0416666666666665,1.0116906474820144,0.0,0.8603274120515501,0.6666666666666666,1.0302631578947368,,,,,,,,,,0.7514977766766547,0.7514977766766548,1.0000000000000002,1.0000000000000002,0.9329862802004609,0.7514977766766548,1.0582108087227864
137,1.0205519292738143,0.9151352069268901,0.9796303591359727,1.0292401287008013,0.9091630380220705,1.0506413149635176,0.9341637877924007,0.9712351945854484,0.8666666666666667,0.8923344947735191,,0.6882352941176471,1.141025641025641,1.231060606060606,,,,,,,,,,0.9091630380220705,0.9091630380220705,1.0,1.0,0.977503544845605,0.9091630380220704,0.9333509929176655
138,1.045799562740934,0.8214466994900083,0.9570952821341534,0.6760790168985491,0.8156534588805052,0.7063863418434291,0.8582705376660265,0.9365671641791045,0.9230769230769231,0.9855960772295433,,0.7140251989389921,0.8513266998341625,2.0783269104541926,,,,,,,,,,0.8156534588805051,0.8156534588805052,1.0,1.0,0.9491443877473777,0.8156534588805053,1.535326926746027
139,0.9970633579891689,1.065707704967821,1.0029991850881446,1.1322105783861334,1.058829969360128,1.1288250232093993,1.0625210078053706,1.000891265597148,1.2142857142857142,1.2131842060667686,,1.090909090909091,1.4135802469135803,1.203125,,,,,,,,,,1.058829969360128,1.058829969360128,1.0000000000000002,1.0000000000000002,1.014330284667665,1.0588299693601284,0.9938638443899176
140,0.9890783305112829,0.9752538402151361,1.0109494618267338,0.9250018749511981,0.968003292990925,0.9149833002331957,0.9646909930125512,1.0108303249097472,0.7857142857142857,0.7772959183673469,inf,0.8072301024428683,1.5903614457831325,1.5612121212121213,,,,,,,,,,0.968003292990925,0.968003292990925,0.9999999999999999,0.9999999999999999,0.9917557839636814,0.9680032929909248,1.1022065261662262
141,1.0662336800119887,0.7512931465896489,0.9375038920165273,0.8238758500280734,0.7465439528558799,0.8787972583835943,0.8013760294622907,0.9396709323583181,0.6296296296296295,0.6700533218042946,inf,0.04102564102564102,1.056338028169014,1.4972358722358723,,,,,,,,,,0.7465439528558798,0.7465439528558798,1.0,1.0,0.9250514818054236,0.7465439528558799,1.734557635212059
142,1.0374338410355581,1.1639875885868167,0.9635596449167368,0.8657291950726733,1.163445527550702,0.8984697518620997,1.2080078225851805,0.959090909090909,1.2291666666666665,1.2815761385199238,inf,1.6188000000000002,0.9962121212121212,1.5901771336553945,,,,,,,,,,1.163445527550702,1.163445527550702,1.0,1.0,1.039633940810127,1.163445527550702,1.1321937580909118
143,0.9924543828829331,0.8094487642561241,1.0073509548660593,0.6122984928012476,0.8049675790159226,0.6078303639948961,0.8035419496707874,0.9961685823754789,0.582010582010582,0.5842490842490843,,0.3278688524590164,0.9253960396039604,1.3015647226173541,,,,,,,,,,0.8049675790159226,0.8049675790159228,1.0,1.0,0.9427388436441161,0.8049675790159225,1.1829832250016734
144,0.9511625374944813,1.1367725793849146,1.0507717478596739,1.0243993194837018,1.1320222185343962,0.9749018486367851,1.0818453976331364,1.0492610837438423,0.6666666666666666,0.6353677621283256,,,1.7762923351158646,1.1409069767441862,,,,,,,,,,1.132022218534396,1.132022218534396,1.0,1.0,1.043219869793702,1.132022218534396,0.8468932371725892
145,0.9886208985775337,0.8649966418456883,1.011539186618451,1.0645266081723312,0.8613894829351243,1.052382964748025,0.8551291470351726,1.0138248847926268,0.95,0.9370454545454546,,,1.358974358974359,1.2005523336095,,,,,,,,,,0.8613894829351244,0.8613894829351243,1.0,1.0,0.9517399317130772,0.8613894829351243,0.932938416512667
146,0.9565017640802855,1.2318300221869518,1.0454143223586727,0.7603754067991122,1.2248432331931869,0.7273435929198431,1.1783174604466427,1.0439814814814814,0.8,0.7663008849557522,,inf,1.2105263157894737,1.1265608397977198,,,,,,,,,,1.2248432331931869,1.224843233193187,1.0000000000000002,1.0000000000000002,1.0705621995501746,1.2248432331931873,0.798392810518773
147,0.9786857119826587,0.7464572163299774,1.0235351601971754,0.8048564652314038,0.7458872747670628,0.7863495807649364,0.729292956777339,1.0231481481481481,1.0,0.9773755656108598,,0.0,0.6836734693877551,0.9359448356807512,,,,,,,,,,0.7458872747670627,0.7458872747670628,1.0,1.0,0.9066837707599886,0.7458872747670628,0.7551106781875943
148,1.0304153182140505,0.709285743351611,0.9708293881150079,0.6076666716262639,0.7060898300852552,0.6259252954900016,0.7305977260626422,0.9695652173913043,0.5,0.515695067264574,,0.0,0.6631313131313131,1.3037157960199006,,,,,,,,,,0.7060898300852552,0.7060898300852552,1.0,1.0,0.8976171257151591,0.706089830085255,1.417922130368365
149,0.9763228314039443,1.2884903144071727,1.0245863333200695,1.897892195359289,1.2824956835273338,1.852349618677851,1.257571528122012,1.0208871662360035,2.0,1.959090909090909,,inf,1.6714285714285715,1.1938873500744727,,,,,,,,,,1.2824956835273338,1.2824956835273336,1.0,1.0,1.0822617743609433,1.2824956835273338,0.8797182438621038
150,0.9923659216193119,1.0638871023408538,1.0080392256885993,1.3503257402414746,1.058590457702059,1.3395567412756746,1.0554024835830216,0.9966814159292036,1.3125,1.3168021680216802,,,1.7708333333333335,1.2659712722298222,,,,,,,,,,1.058590457702059,1.058590457702059,1.0,1.0,1.0192707721546617,1.0585904577020593,1.311325727037147
151,0.9786058092084858,1.0560629106661084,1.022059081942141,0.8730869650281071,1.0504929132151308,0.8542431454833772,1.0332699247281796,1.0104516268278205,0.9090909090909091,0.8996888728318145,,,1.2972972972972974,1.5752865961199294,,,,,,,,,,1.0504929132151308,1.0504929132151308,1.0000000000000002,1.0000000000000002,1.017225898217518,1.0504929132151313,1.1282567465123088
152,0.9861379763990558,0.8483348092261164,1.0139718400236815,0.828750400623728,0.8445556972127649,0.8173424127691031,0.8366549531075136,1.0191128741435267,0.8333333333333333,0.8177083333333333,,,1.0615563298490127,1.1617866004962782,,,,,,,,,,0.8445556972127648,0.844555697212765,1.0,1.0,0.9511616824784892,0.844555697212765,0.44337510467089897
153,0.9935854982468078,1.0055199868287181,1.0075187595311332,1.5159827515016402,1.005802654321733,1.504669512818789,0.9980161768580457,1.0093896713615023,2.0069444444444446,1.9882751937984495,,,1.2105263157894737,1.2380952380952381,,,,,,,,,,1.005802654321733,1.005802654321733,1.0,1.0,1.0018549130958876,1.0058026543217333,0.6764642467052793
154,0.9850229356187258,1.0147607575025526,1.0152412262578872,0.8273713149465927,1.0119720426300312,0.8149504731732504,0.9995270060716895,1.0116822429906542,1.0625,1.050230946882217,,,0.8572463768115942,1.191872427983539,,,,,,,,,,1.0119720426300312,1.011972042630031,0.9999999999999999,0.9999999999999999,1.0039026420355037,1.0119720426300307,0.9967387168063727
155,0.9604301922233773,1.0747503066206276,1.0409412425603113,0.8332660637395446,1.0697505201979325,0.8004929196240649,1.0324794817575207,1.0469483568075117,1.0,0.9551569506726458,,,1.0,1.1770486555697823,,,,,,,,,,1.0697505201979327,1.0697505201979325,0.9999999999999998,0.9999999999999998,1.0215421207542652,1.0697505201979323,1.12692298975138
156,1.0252540635990275,1.167033606887307,0.9756488660998235,1.0541922666208712,1.1599818088016844,1.0805038165643084,1.1961615241627157,0.976915855948114,0.78125,0.799877604399535,,,1.4650793650793652,1.5300072493786248,,,,,,,,,,1.1599818088016847,1.1599818088016844,0.9999999999999999,0.9999999999999999,1.0500549831411252,1.1599818088016844,0.9535339632644728
157,0.9784711527616181,1.1484392081087957,1.0220856597141807,0.907042538829844,1.1432274524452537,0.8874427110954717,1.1236214736067076,1.0231481481481481,1.25,1.2217194570135748,,,0.9634146341463414,1.2181561771140321,,,,,,,,,,1.1432274524452535,1.1432274524452535,1.0,1.0,1.0451819188102172,1.1432274524452533,1.4578688025850575
158,0.9589389938867153,1.2998370195204965,1.0427994902293967,1.7777091872581092,1.292751381442625,1.7047468894207514,1.246487969834504,1.0412264150943398,1.5277777777777777,1.4673202614379086,,,2.1969230769230768,1.482843137254902,,,,,,,,,,1.292751381442625,1.292751381442625,1.0,1.0,1.0877481794445716,1.292751381442625,0.9592677731901273
159,0.9990557118910578,0.9774440704691829,1.0010246425985296,0.9306598288752812,0.9724032609797513,0.9297072955750357,0.9764438068149335,0.9887387387387387,1.0,1.0113947696139478,,inf,1.3466666666666667,1.209445619135721,,,,,,,,,,0.9724032609797513,0.9724032609797513,1.0,1.0,0.9909931155271581,0.9724032609797513,1.487579198712918
160,1.0244219355369597,0.828804265262869,0.9763920874936238,0.957901642380867,0.8242101787233166,0.9810624743559918,0.8488437435239187,0.9882407653467977,1.125,1.138095238095238,,,1.2432432432432432,1.788997140739172,,,,,,,,,,0.8242101787233166,0.8242101787233165,1.0,1.0,0.9353594680523917,0.8242101787233165,1.0553293280417473
161,0.9860609643363121,1.1075837729872327,1.0142025334290943,0.7361605458056804,1.1051065716726898,0.7258565688100798,1.09208037854399,1.0277777777777777,0.675,0.6567567567567567,,,1.0782241014799154,1.2168964298338636,,,,,,,,,,1.1051065716726898,1.1051065716726898,1.0,1.0,1.0328541163891056,1.1051065716726898,1.6053722157513033
162,1.0451128898006128,0.6873098977704862,0.9568077920749166,0.7971861434538773,0.6848625999816447,0.8331727099763173,0.7183362988416387,0.9664429530201343,0.8712121212121211,0.901462542087542,,0.5202312138728323,0.6954022988505748,1.8969298245614037,,,,,,,,,,0.6848625999816447,0.6848625999816447,1.0,1.0,0.8921094905053523,0.6848625999816447,0.9424192126072846
163,1.0245256142033288,0.9747423623631817,0.9759886201991466,0.9192383641831069,0.9720848614804183,0.9418535679192038,0.9987230815911452,0.9701986754966887,0.75,0.7727533935948809,,,1.2195945945945947,1.1826605642256904,,,,,,,,,,0.9720848614804183,0.9720848614804183,1.0,1.0,0.9894468622083867,0.9720848614804182,0.920014914961311
164,1.0019064237908815,0.8347148625128713,0.9979503424097804,0.8973326124455213,0.8312540900424925,0.8991756235793316,0.8364292707126617,1.0032679738562091,1.125,1.1209415584415585,,0.34374999999999994,1.291346153846154,1.4351615846942951,,,,,,,,,,0.8312540900424925,0.8312540900424925,1.0,1.0,0.9341527131088476,0.8312540900424925,0.9714817499136219
165,0.9914819299466817,1.089334597987416,1.0082591882098595,1.3368461100713775,1.0857764260344287,1.3258952913138498,1.0804112778991917,1.0112025886786271,1.3333333333333333,1.318565400843882,,,1.595,1.4398171768707484,,,,,,,,,,1.085776426034429,1.0857764260344287,1.0,1.0,1.0332365913182424,1.0857764260344287,0.4184330665657981
166,1.0043317075583413,0.896568207943198,0.9955803656697675,0.8781019611512486,0.8928475002272833,0.8820001185752129,0.9005484477491643,1.0031847133757963,1.0,0.9968354430379747,,0.0,1.3947368421052633,1.6031325876686702,,,,,,,,,,0.8928475002272832,0.8928475002272832,1.0,1.0,0.9590996444749342,0.8928475002272831,0.9699775391212435
167,1.006455632516078,0.7891487901741806,0.9940321137370822,0.7765174154350292,0.788056456972819,0.7811793852340758,0.7938864875926713,1.0015673981191222,0.8444444444444446,0.8430555555555557,,0.3178807947019868,0.9901960784313726,1.307697774528915,,,,,,,,,,0.788056456972819,0.788056456972819,1.0,1.0,0.9187925238081995,0.7880564569728192,1.3862144400518364
168,1.0020304925882793,0.644960017049975,0.9996496072643498,0.9584694298508278,0.6443873936389877,0.958806436888434,0.645186211377355,1.0,1.3333333333333333,1.3333333333333335,,0.0,0.6945111492281304,1.3763397129186603,,,,,,,,,,0.6443873936389877,0.6443873936389877,0.9999999999999999,0.9999999999999999,0.8537302647107308,0.6443873936389877,1.0263571769659412
169,0.9709747472072543,1.304720272089342,1.0297462381300102,1.4068928668962042,1.298997783354525,1.3662517997390298,1.267029768054271,1.0238499646142958,1.1805555555555556,1.1529503105590062,,inf,2.256340579710145,1.468573599652627,,,,,,,,,,1.298997783354525,1.2989977833545252,1.0000000000000002,1.0000000000000002,1.1077637605372317,1.2989977833545252,1.2632831443697445
170,0.9984503604488331,0.9099815956371127,1.0011487458209407,1.1518858030116625,0.9082807686064529,1.1505641473942658,0.9089371744353101,0.9968944099378882,1.4583333333333333,1.4622395833333333,,0.0,1.0865853658536586,1.538676236044657,,,,,,,,,,0.908280768606453,0.9082807686064529,1.0,1.0,0.9664925694627287,0.9082807686064529,1.1063133533788445
171,1.0858705056882014,0.8146244894908674,0.9219088742444472,0.7829059021626628,0.8150633467815254,0.8492226553348836,0.8836279943161356,0.9228567906452523,0.75,0.812700964630225,,0.8425925925925924,0.6847402597402598,0.957343149461376,,,,,,,,,,0.8150633467815254,0.8150633467815256,1.0000000000000002,1.0000000000000002,0.9313935150320424,0.8150633467815256,0.8283984911604815
172,1.03578709085604,0.7977381939409331,0.9655524036595884,0.7305377614394022,0.7960374803421985,0.7566008149069976,0.826198472414186,0.9753086419753086,0.8,0.8202531645569621,,,0.95,1.291298472889499,,,,,,,,,,0.7960374803421986,0.7960374803421985,1.0,1.0,0.9216508515649349,0.7960374803421986,1.084451966324393
173,0.9695467710860395,0.9440922349936296,1.0316415868125026,0.5967227252347804,0.9431526190520843,0.5784205318414694,0.9151357223015697,1.0231149097815764,0.7692307692307693,0.7518535681186285,,,0.625,1.5170212765957447,,,,,,,,,,0.9431526190520843,0.9431526190520843,0.9999999999999999,0.9999999999999999,0.9798078250116098,0.9431526190520843,1.8321688295393992
174,1.0074249284597552,1.0337676422328386,0.9926488706636803,1.1500303040011288,1.0292524732667339,1.1585469323429782,1.0414232794539586,1.0,1.0,1.0,,,1.564153439153439,1.5721343537414967,,,,,,,,,,1.0292524732667339,1.029252473266734,1.0,1.0,1.0110667699874492,1.0292524732667339,0.9918695226763647
175,0.9610499118571596,0.9825899888541418,1.040289173263114,1.173280964609205,0.9793182415045966,1.1278411485138315,0.9445354610370422,1.0337760910815939,1.2000000000000002,1.1607954545454546,,0.2766393442622951,1.4536340852130327,1.5673119112143503,,,,,,,,,,0.9793182415045965,0.9793182415045966,1.0000000000000002,1.0000000000000002,0.9932791499038987,0.9793182415045967,1.0385590638094067
176,0.9899909491518359,1.1371413693319838,1.0103995842273266,1.2284674280541332,1.1318692712973957,1.215823372792459,1.1254373333420324,1.0028735632183907,1.3333333333333333,1.3295238095238093,,inf,1.5853658536585367,1.5243513835779778,,,,,,,,,,1.1318692712973957,1.1318692712973955,1.0,1.0,1.0415399451024778,1.1318692712973955,0.6357501586697971
177,0.9925377180011561,1.0605548459183587,1.0077192071796415,2.3915785027445966,1.0562123148829712,2.3732588261744434,1.0524309136536072,0.9883720930232558,1.35,1.3658823529411765,,inf,3.647253787878788,1.346763424470912,,,,,,,,,,1.0562123148829712,1.0562123148829712,1.0,1.0,1.0186450156887745,1.0562123148829712,0.48233573021121723
178,0.969807962518429,1.0205676725048167,1.030928203051348,1.151585557823045,1.0159635925823804,1.1170375783612592,0.9899502839903567,1.0335195530726258,1.1666666666666667,1.1288288288288288,,1.210826210826211,1.5005549389567148,1.6508650519031143,,,,,,,,,,1.0159635925823804,1.0159635925823807,1.0000000000000002,1.0000000000000002,1.0047782689193223,1.0159635925823807,1.0847623859034994
179,1.0234799425874166,0.7835478823278195,0.9772183451367347,0.6376302774788161,0.7806794485018591,0.652495197876783,0.801814544546013,0.9777777777777777,0.6904761904761905,0.7061688311688312,,,0.6702481840193704,1.3991608796296298,,,,,,,,,,0.7806794485018591,0.780679448501859,1.0,1.0,0.921837579351645,0.7806794485018591,1.1609484446316274
180,1.0104457024160232,1.000253125936883,0.9895288461154245,1.4327711433660943,0.9957152967529691,1.4479326444343064,1.0108375317110072,0.9923076923076923,1.857142857142857,1.8715518096560775,,0.4488636363636363,1.4850980392156863,1.2946924272707085,,,,,,,,,,0.995715296752969,0.9957152967529691,1.0,1.0,0.9987012663352077,0.9957152967529692,0.8405271563591743
181,1.028827544512478,0.918811082215313,0.9721904422818262,1.1090001185926521,0.9152494505190487,1.140723084164489,0.9450935598237062,0.9627893838775134,1.4444444444444446,1.4998645660585959,,,1.1470238095238097,1.1599903474903475,,,,,,,,,,0.9152494505190487,0.9152494505190489,1.0000000000000002,1.0000000000000002,0.9728330481481853,0.9152494505190489,0.7377347071661119
182,1.0143584699221433,1.1929649126803503,0.9868708698829431,1.4808809518055526,1.1874217012673989,1.5007950370423684,1.2089756577037383,0.9918142222416775,1.3363636363636364,1.3474699828473413,,inf,1.717741935483871,1.6083161244316941,,,,,,,,,,1.1874217012673989,1.1874217012673989,1.0,1.0,1.0517611690561233,1.1874217012673989,0.7943742146763804
183,1.042232894022957,0.9034181863472202,0.9599859678172322,0.9333196951573373,0.8994841216196107,0.9722221315840784,0.941074074478553,0.9655223438887245,0.8571428571428572,0.8877551020408164,,inf,1.065177154944474,1.5710416344219162,,,,,,,,,,0.8994841216196107,0.8994841216196108,1.0,1.0,0.9694118458737684,0.8994841216196107,0.755259586422169
184,0.9897067777047528,0.972196654529708,1.0113944028636512,0.8016917334111688,0.969091832280125,0.792659818478726,0.9612436355411195,1.0104786686182035,0.7058823529411765,0.6985632962862565,,0.9,0.9412429378531073,1.6505343819318412,,,,,,,,,,0.9690918322801249,0.9690918322801249,1.0,1.0,0.9909870646486267,0.9690918322801249,0.9310889792225167
185,1.0110337328452563,1.1521968706702945,0.989091091480769,1.288462639392583,1.1466092465501554,1.3026733841709408,1.164904709580732,1.0023696682464456,1.2196969696969697,1.2169453973699258,,inf,1.6969267139479904,1.3652966192937122,,,,,,,,,,1.1466092465501552,1.1466092465501554,1.0,1.0,1.0418418913710887,1.1466092465501552,0.8900889803385466
186,0.9431303866706462,1.064305616135825,1.0613595972863394,1.0830146413692774,1.059633384821519,1.0204729637870522,1.0028926804791012,1.0491071428571428,1.1868131868131868,1.1312602291325695,,0.71658615136876,1.144781144781145,1.8270523196993786,,,,,,,,,,1.059633384821519,1.059633384821519,1.0,1.0,1.015523340531452,1.059633384821519,1.6671530191669124
187,1.1021781682121206,0.787819947597507,0.906794953250502,1.1724845326115734,0.7832720534335077,1.2929984986772007,0.8687961212456562,0.905829596412556,1.2857142857142856,1.4193776520509191,,0.2078313253012048,1.1044776119402986,1.7349498327759196,,,,,,,,,,0.7832720534335076,0.7832720534335076,0.9999999999999999,0.9999999999999999,0.929184431561656,0.7832720534335076,0.7365509853867098
188,0.9927919461855993,1.0126669280173022,1.0071968931112947,0.7323572970804555,1.00876019149441,0.7271242376211506,1.0054308840943942,0.9943000384851416,0.8285714285714286,0.833289646133683,,inf,0.8405797101449275,1.0626984126984127,,,,,,,,,,1.00876019149441,1.00876019149441,1.0,1.0,1.0025207611719082,1.0087601914944102,1.1291981885417472
189,1.0323578517412653,0.6214161590698075,0.9682086081429231,0.5592313700687817,0.6215737686682494,0.5775938715554949,0.6418207042754718,0.9744297597310378,0.625,0.6414019337016574,,0.0,0.5981830887491264,1.3582752613240419,,,,,,,,,,0.6215737686682494,0.6215737686682494,1.0,1.0,0.8559896642547123,0.6215737686682494,1.0816979372219966
190,0.9939854618620227,0.9046269549136395,1.006332156162859,1.0009416169372134,0.9027990488021924,0.9946435120569908,0.8989349121330629,0.9920212765957447,1.0,1.0080501408774651,,0.6356589147286822,1.0188679245283019,1.1738273921200753,,,,,,,,,,0.9027990488021926,0.9027990488021925,1.0,1.0,0.9688849847386467,0.9027990488021924,1.1508631626910744
191,0.9589750119390816,1.3589264726312686,1.0415657966877236,1.605616696090415,1.3535975263923838,1.5415412232693648,1.3046949181411658,1.0376344086021505,1.6666666666666665,1.6062176165803108,,inf,2.7884615384615383,1.162786400591279,,,,,,,,,,1.3535975263923838,1.3535975263923838,1.0,1.0,1.1049573028719473,1.3535975263923836,1.1433554004414375
192,1.0681342233503521,0.7341263197198966,0.9376078463506698,1.279303170873555,0.7326153194609559,1.364433262412636,0.7829781118119984,0.9415760869565217,1.375,1.4602566451777692,,0.15313653136531363,1.1151315789473686,1.5478707130043832,,,,,,,,,,0.7326153194609558,0.7326153194609559,1.0,1.0,0.9049879905595403,0.7326153194609558,0.635907376084354
193,0.9895522131083402,0.9934607775316686,1.0107454530158761,0.9753796186019761,0.9900776809172547,0.9650102027929144,0.9828994126535262,1.027027027027027,1.75,1.7039473684210527,,,0.8490566037735849,1.6485262457154188,,,,,,,,,,0.9900776809172546,0.9900776809172546,1.0,1.0,0.9966975463273822,0.9900776809172545,0.9156336447159976
194,1.0110161118784773,0.9874103725398946,0.9893062655260393,1.235047208027646,0.9823133608476813,1.2483970645782176,0.998083189260389,0.979381443298969,1.4000000000000001,1.4294736842105265,,inf,1.5064024390243902,1.5062135890284356,,,,,,,,,,0.9823133608476811,0.9823133608476811,1.0,1.0,0.9943294315587659,0.9823133608476811,0.67136811878331
195,1.0048357991576666,1.0279132071572443,0.9957988428878786,1.204090111538843,1.0235402365874295,1.2092068087015237,1.0322790219866542,1.0074135492366971,1.35,1.3397058823529413,,inf,1.3683006535947713,1.8537574093965072,,,,,,,,,,1.0235402365874295,1.0235402365874295,1.0,1.0,1.0070069498500454,1.0235402365874298,1.42016300277763
196,0.9761660309271192,0.8658633783328396,1.0237676609105182,0.877225178442042,0.8620092396956313,0.8568596293243487,0.8457616033336688,1.0255102040816326,0.888888888888889,0.8667772249861804,,0.7292307692307692,1.1666666666666667,1.5084388185654007,,,,,,,,,,0.8620092396956314,0.8620092396956314,1.0,1.0,0.9562222391517489,0.8620092396956314,0.9700237666122438
197,1.053532691000052,0.8539817997858103,0.9508295442351304,0.8446390422072253,0.8529950029101243,0.8883181597490422,0.8981442089746521,0.9406175771971497,0.8391608391608392,0.8921381648654376,,0.30962343096234307,0.8376680303915839,1.2149572921978582,,,,,,,,,,0.8529950029101243,0.8529950029101243,1.0,1.0,0.9529372436111743,0.8529950029101243,1.455275461443339
198,1.0637332501773455,0.7685152258367041,0.9401583279969559,1.0762472397097318,0.7644945892979615,1.1447510516142119,0.8174317491272625,0.9631336405529954,1.4523809523809526,1.5079744816586922,,0.2619047619047619,1.2836061507936507,1.3454742156509194,,,,,,,,,,0.7644945892979615,0.7644945892979615,1.0,1.0,0.9287766927601341,0.7644945892979615,0.9822170440340598
199,1.0177443255072123,0.88469977161472,0.9831820060054639,1.0494009074996642,0.8822292738878681,1.067397388510404,0.9000051361150281,0.9838924649288749,1.1325757575757576,1.1510571712083046,,0.0,1.0986842105263157,1.425328947368421,,,,,,,,,,0.8822292738878681,0.8822292738878679,1.0,1.0,0.9600792616704655,0.882229273887868,0.47786238662774205
200,0.9624946949906039,1.216338687710918,1.039340615235628,0.9121585229488289,1.2111711835050865,0.8776318998164103,1.17029800105846,1.030612244897959,0.7279411764705883,0.7063191613278975,,,1.5060975609756098,1.363265766491573,,,,,,,,,,1.2111711835050865,1.2111711835050865,1.0,1.0,1.0624834203691766,1.2111711835050865,1.4411218831174812
201,0.9743403354510107,1.2707350632381809,1.027305353692273,1.3289945111689878,1.266139653934229,1.2936703414769046,1.2369592257111452,1.0171209947393591,1.5,1.4747596153846154,inf,1.6791044776119404,1.764950166112957,1.4010081300813009,,,,,,,,,,1.266139653934229,1.266139653934229,1.0,1.0,1.0718531609040163,1.2661396539342287,0.699237965650316
202,1.0401938352892128,0.4598600026704628,0.9586577864271505,0.3724747507503129,0.45805854410739,0.3885377618832053,0.47969151159177287,1.0071343739395995,0.6578947368421052,0.6532340988963777,0.0,0.08475783475783476,0.5505728314238952,1.5381533101045297,,,,,,,,,,0.45805854410738994,0.45805854410739,1.0,1.0,0.8119932973048609,0.45805854410739,1.7383035024972462
203,0.981885817821165,1.2942990432921655,1.0176846139260824,1.3544069076725616,1.2889107799618946,1.330870700492141,1.2718076243940604,1.0142857142857142,1.125,1.1091549295774645,inf,1.6294642857142856,2.510204081632653,1.1628133629324815,,,,,,,,,,1.2889107799618946,1.2889107799618946,1.0,1.0,1.0716897971896797,1.2889107799618946,0.9882554022484289
204,0.9293848801531299,1.823375885416741,1.0759283322725166,1.8074010901095776,1.8155448201143016,1.6798526778192413,1.6947001307842753,1.0663455037187288,1.5119047619047619,1.4174895764757514,,inf,2.5035714285714286,0.9640683229813665,,,,,,,,,,1.8155448201143014,1.8155448201143016,1.0,1.0,1.1995464154523812,1.8155448201143016,0.6143666833360542
205,0.959160028203553,1.4352545637390421,1.042923369639146,1.3863365903461462,1.42670304169261,1.3292793832673957,1.3761835800544349,1.0368663594470047,1.2857142857142856,1.24,,6.956081081081081,2.0128048780487804,1.4470901110890697,,,,,,,,,,1.42670304169261,1.4267030416926105,1.0000000000000002,1.0000000000000002,1.102489638491583,1.4267030416926108,1.066612854465166
206,1.0348172434563883,0.6291644486840802,0.9665466448445171,0.49790591611915014,0.6262351567107947,0.5151390455648889,0.6509405956142864,0.9888690476190476,0.631578947368421,0.6386913229018493,0.0,0.29555555555555557,0.6071428571428571,1.5692724458204335,,,,,,,,,,0.6262351567107947,0.6262351567107947,1.0,1.0,0.8855497881443795,0.6262351567107947,1.2780778460539932
207,0.9615400998050653,1.5374120056332916,1.0398482878718407,1.1448046190018473,1.5369119602342143,1.1009341216528932,1.478496123344068,1.0444162436548223,0.8928571428571428,0.8549291164272385,,inf,1.2424242424242424,1.0945165945165947,,,,,,,,,,1.5369119602342143,1.5369119602342143,1.0,1.0,1.1443411444374554,1.5369119602342138,1.0327652832755114
208,1.0187068400939605,0.901884124265884,0.980758512035631,1.0008529878455028,0.8990136245226883,1.0204887450108768,0.9195784058114068,0.9766885869827047,0.7417582417582418,0.7594290131978574,,,1.1204994192799071,0.9444546846642468,,,,,,,,,,0.8990136245226884,0.8990136245226883,1.0,1.0,0.9676210812743309,0.8990136245226883,1.0080450807382286
209,0.8980139629374961,2.948676242622638,1.1148262663158355,1.8438975750315605,2.9424045991707297,1.6539774550669881,2.644964682163352,1.1032863849765258,1.875,1.6994680851063828,inf,19.598958333333332,1.9838709677419355,1.0503953956295913,,,,,,,,,,2.9424045991707297,2.9424045991707297,0.9999999999999999,0.9999999999999999,1.3223293669959073,2.9424045991707293,0.9137107511061777
210,1.0335328496417266,0.8935262958824857,0.9679714447514287,0.6941245131326987,0.8889325614961637,0.7170919316849758,0.9230915857357131,0.981651376146789,0.5384615384615385,0.5485262401150252,inf,0.368421052631579,1.2424242424242424,1.42483315770987,,,,,,,,,,0.8889325614961636,0.8889325614961636,1.0,1.0,0.9675918307591077,0.8889325614961638,1.52532851058435
211,0.9927530160941451,1.1405000106070613,1.0083131536800525,1.1767883460361859,1.1359013503714728,1.1670862209737884,1.1310971821615992,1.0095693779904307,1.2833333333333334,1.2711690363349133,,0.5367647058823529,1.370959595959596,1.131477069684336,,,,,,,,,,1.1359013503714728,1.1359013503714726,1.0,1.0,1.0384706391297582,1.1359013503714726,0.8003915767318677
212,0.9090034544433482,1.954185665652086,1.1006125853209603,2.180256543795344,1.9444791693764039,1.9809482218118903,1.7755436306247643,1.0787650945545684,1.5714285714285714,1.4567003792667508,,inf,2.4787234042553195,1.1019574033272663,,,,,,,,,,1.9444791693764039,1.944479169376404,1.0000000000000002,1.0000000000000002,1.2008397049431387,1.9444791693764043,1.0408827929974298
213,0.9982819681748965,0.9978991618436641,1.0026316850851014,0.5717347804282478,1.0036946431830374,0.5702341123019662,0.9952799682849102,1.0142517814726841,0.9333333333333335,0.9202236262852297,,0.18181818181818182,0.5022522522522522,1.3131782945736434,,,,,,,,,,1.0036946431830374,1.0036946431830374,1.0,1.0,1.0010627896692292,1.0036946431830376,1.4107499806820591
214,0.971088944760899,1.1376350081623612,1.0322037911251531,1.1713929925370867,1.1345697089703406,1.1348466606883463,1.1021419274897086,1.0160973238067053,0.9444444444444444,0.9293614881850176,inf,4.391752577319588,1.147887323943662,1.5671085335542667,,,,,,,,,,1.1345697089703406,1.1345697089703406,1.0,1.0,1.0347129914528819,1.1345697089703404,1.185811097581513
215,1.0485000219533094,0.5229753621159418,0.9500642170007403,0.5558212897233461,0.5204976139909339,0.5850354830271142,0.5504631606336132,0.9375649535686748,0.5057675244010649,0.5394311132465137,0.04773750296138356,0.4744640434192673,0.6954022988505748,1.2645847632120795,,,,,,,,,,0.5204976139909339,0.5204976139909337,1.0,1.0,0.8621494368478042,0.5204976139909337,1.0037606717317966
216,0.9337133532501463,1.0167099114876668,1.0682728129303471,0.9102856336329307,1.0126505409884135,0.8521097070100974,0.9517324593319567,1.0764772914698693,1.085057471264368,1.007988092284793,0.9666666666666668,1.264722222222222,0.9227821986442676,1.5085874051391293,,,,,,,,,,1.0126505409884135,1.0126505409884137,1.0,1.0,1.0027558389210638,1.0126505409884137,0.7821701792229385
217,1.0241939250794083,0.47878938749930294,0.9745985785733088,0.4895613922158975,0.4760719066804929,0.5023210722215581,0.49126827037137843,0.9905097969150141,0.32666666666666666,0.3297909407665506,0.07407407407407408,0.37962962962962965,0.6778846153846154,1.21875,,,,,,,,,,0.4760719066804929,0.4760719066804929,1.0,1.0,0.8441068358776014,0.4760719066804928,1.2142693179420252
218,1.0256641990189057,1.8213436432088994,0.9755767247417392,1.9555563550324735,1.8067476787903112,2.0045130669643902,1.8669402955592442,0.9929328621908127,2.5,2.51779359430605,inf,2.284963196635121,3.9130434782608696,1.7566275666801494,,,,,,,,,,1.8067476787903112,1.8067476787903112,1.0,1.0,1.1638134415144776,1.806747678790311,0.4241573128966679
219,0.9710557717256288,1.3538158140283487,1.0303027061574812,1.656796769305479,1.3468856157955023,1.608067958478446,1.3139981152504308,1.0215827338129497,1.1666666666666665,1.142018779342723,inf,0.6547619047619048,2.1702127659574466,1.4795454545454545,,,,,,,,,,1.346885615795502,1.346885615795502,1.0,1.0,1.0777263032644617,1.346885615795502,0.4914946231365157
220,1.012314962816804,0.3716638069805078,0.9880558587971764,0.3135298299215878,0.3695762462391076,0.3173199770938421,0.3761568574756835,0.9964285714285714,0.8,0.8028673835125448,,0.0,0.47058823529411764,1.2630906768837802,,,,,,,,,,0.36957624623910756,0.36957624623910756,1.0,1.0,0.7105967143684202,0.3695762462391077,3.2421473625916706
221,0.9525509465501792,0.5901280272605174,1.0529545314613273,1.1335666024636621,0.5885116657953997,1.076558019772881,0.5604496594021455,1.0684410646387832,0.36363636363636365,0.3403429310902621,0.0,0.31846590909090916,1.0334609211013706,1.3440443337094847,,,,,,,,,,0.5885116657953998,0.5885116657953998,1.0,1.0,0.8722654719074916,0.5885116657953998,0.6759190598029424
222,1.0113408520265001,0.87588452530482,0.9888822635189441,0.8044100432100898,0.869925168954194,0.8134538082901712,0.885731858702753,0.9964788732394366,1.0,1.0035335689045937,,0.4622093023255814,1.8287037037037037,1.4705188679245285,,,,,,,,,,0.869925168954194,0.869925168954194,1.0,1.0,0.9539025476581948,0.869925168954194,0.7975125056845698
223,1.0213378718066266,1.104711655602551,0.9788917634051963,1.3261404470332687,1.0959362951715714,1.3547365136895095,1.1285329413522152,0.9910265336118202,2.7916666666666665,2.8179347826086953,inf,1.2533333333333334,1.2638888888888888,1.1929771908763505,,,,,,,,,,1.0959362951715714,1.0959362951715714,1.0,1.0,1.0225517296957518,1.0959362951715714,0.5976457091118678
224,1.0600533197901054,0.4055101895225802,0.9449353088656481,0.4035783071413169,0.40604295890384945,0.42709625530054185,0.4291407948896372,0.9670710571923743,0.6666666666666667,0.6893667861409798,,0.09848484848484848,0.5680672268907563,1.5063398140321218,,,,,,,,,,0.40604295890384945,0.40604295890384945,1.0,1.0,0.7590130520352191,0.40604295890384945,2.088728577188288
225,0.9388337944803953,1.011585839773815,1.0642755973962739,0.7650806794475518,1.0116419460930928,0.718875519904276,0.9504942655612384,1.0518672199170125,0.8458498023715415,0.8040257749187092,,0.9817578772802653,0.8322522522522522,1.3194986979166665,,,,,,,,,,1.0116419460930928,1.0116419460930928,1.0,1.0,1.0026153490126066,1.011641946093093,1.3004763810641395
226,0.9558366016501992,1.0652793177758229,1.0452298360037744,1.0770759368394582,1.0618723087893458,1.030468047704766,1.0191819148001862,1.0395256916996047,1.375,1.3227186311787071,,1.1525345622119816,1.2549019607843137,1.4483606557377047,,,,,,,,,,1.0618723087893458,1.0618723087893458,1.0,1.0,1.0141539963093809,1.0618723087893458,1.1351852402380516
227,0.9316861055221344,1.2627960915827723,1.0729499041790531,1.6784764446668423,1.2553310909741409,1.5643567683163142,1.1769385380102872,1.0574502495061302,1.7124505928853755,1.6192642634025134,inf,0.9845679012345679,1.959016393442623,1.1585031347962382,,,,,,,,,,1.2553310909741409,1.2553310909741406,1.0,1.0,1.0508514730773044,1.2553310909741409,0.7594425440861765
228,0.9895683813353409,1.3953466156241272,1.0103946273474738,1.7451888246581504,1.3856659939996308,1.7272349055357907,1.3809917614893605,1.0029392578949388,1.7571428571428571,1.751953125,inf,1.2119126369666844,2.398148148148148,1.5480031170855248,,,,,,,,,,1.3856659939996308,1.3856659939996305,1.0,1.0,1.0749734893964327,1.3856659939996305,1.0248518151885257
229,0.9205868081726332,1.273573339215916,1.0862231574358567,0.9188311053489977,1.2673436307069559,0.8458953772289143,1.1724786012231347,1.0969162995594715,0.9545454545454546,0.8702081051478642,,1.8884393063583815,0.9444444444444444,1.6065493646138809,,,,,,,,,,1.2673436307069559,1.2673436307069559,1.0,1.0,1.0591279022143212,1.267343630706956,1.1695707343211774
230,0.8754339736979821,2.201101129918065,1.1432253565281043,0.9752940051376067,2.188435686336704,0.8531073623775659,1.9253426560364142,1.130825958702065,1.4444444444444444,1.2773420479302833,,25.62214983713355,1.1517313546423136,1.4567257112184648,,,,,,,,,,2.188435686336704,2.188435686336704,1.0,1.0,1.2196689071749964,2.188435686336704,1.211025663717063
231,0.9945651148171277,0.8525474854948238,1.00759815609275,0.8062707982776827,0.8472390238985221,0.8008267273081452,0.8465721070823695,1.0226024968080578,1.0417293233082705,1.0187360666860519,0.5967878275570584,0.9732699732699732,0.871436609152288,1.5156467047383857,,,,,,,,,,0.8472390238985219,0.8472390238985221,1.0,1.0,0.9668904128797604,0.847239023898522,0.8784591116732634
232,0.9711122118716021,0.7565469562117737,1.0267954750064305,0.7699307622622773,0.7511725330190322,0.7498384617182885,0.7368038728945185,1.03719723183391,0.5916666666666667,0.5704412910406234,0.49839449541284403,0.809314134327626,0.9667471466198421,1.073010664479081,,,,,,,,,,0.7511725330190322,0.7511725330190322,1.0,1.0,0.9456022220818239,0.7511725330190323,0.864506386842693
233,1.0901514428821248,0.5239081888416448,0.9156441090156556,0.5587222355932715,0.5203775728753479,0.610195850212933,0.5721744766150043,0.9070624481573646,0.4810897435897436,0.5303648136823043,0.15880149812734085,0.6753789905475298,0.7057347350914707,1.2657840494688442,,,,,,,,,,0.5203775728753478,0.5203775728753479,1.0,1.0,0.8758904808243072,0.5203775728753479,1.817735669372651
234,1.0085512743954301,0.9077026932434111,0.9909901007641926,0.8392964805517809,0.9023548148444289,0.8469271322106033,0.9159551956207939,0.996,0.9107142857142856,0.9143717728055077,inf,0.7590497737556561,1.1021505376344085,1.4187779433681074,,,,,,,,,,0.9023548148444289,0.9023548148444289,1.0,1.0,0.9752804265286812,0.9023548148444289,0.774903679232109
235,0.989253634128719,0.8697130484534479,1.0129099189079924,0.7507931391405891,0.8672454967993359,0.7417898528867215,0.8595815167093168,1.0220810307158463,0.675438596491228,0.660921912624699,,0.9177654406662039,0.8104377104377105,1.1783022965928835,,,,,,,,,,0.8672454967993359,0.8672454967993358,1.0,1.0,0.965032114628612,0.8672454967993356,0.9085501272320864
236,1.0080414024755915,1.090195091196237,0.9920261586813096,1.1070397046087754,1.0824884687871958,1.1159380037565336,1.0989580012750224,0.984313725490196,1.056980056980057,1.0738243606769502,inf,0.8158640226628896,1.4269662921348314,2.1612244897959183,,,,,,,,,,1.082488468787196,1.0824884687871958,1.0,1.0,1.020036308682927,1.0824884687871958,0.6898885258653467
237,0.856118515327068,0.9793943552955406,1.165889000037521,0.5850277251893111,0.9776545030486865,0.5020948355755493,0.8415343518496861,1.128422920892495,0.8235294117647058,0.7298123550495466,,1.913245033112583,0.6620044324058114,1.3476134772090655,,,,,,,,,,0.9776545030486865,0.9776545030486866,1.0,1.0,0.9916118751828238,0.9776545030486867,1.4905552909198518
238,0.855436878797587,1.1972474403043685,1.1682116827460893,0.5474974801722252,1.194541780370288,0.4686628843539875,1.0248552088084981,1.1754385964912282,0.5454545454545455,0.4640434192673,,1.8549280177187155,0.6414603174603175,0.8663108262912357,,,,,,,,,,1.194541780370288,1.194541780370288,1.0,1.0,1.0455634702380499,1.194541780370288,1.3682745731031023
239,1.0368900622225898,0.756410112269537,0.964469251160218,0.9330599714460381,0.7528080110984021,0.9674263331385409,0.7842458248324851,0.9612833042051574,1.2834757834757835,1.3351448056172466,0.075,0.6734763713513328,1.0,1.3517090139140955,,,,,,,,,,0.752808011098402,0.7528080110984019,1.0,1.0,0.934936737445561,0.7528080110984019,0.7748236543493079
240,0.9871375683331991,0.8237927762162364,1.0128100135493072,0.5159200005263633,0.8200488560128192,0.5093946042397426,0.8133733973844344,1.005674671240709,0.721505376344086,0.7174145040019403,0.0,0.6927234008357441,0.5778496168582375,1.5775862068965518,,,,,,,,,,0.8200488560128192,0.8200488560128192,1.0,1.0,0.9529677572415373,0.8200488560128192,0.9529556600407956
241,1.0830000421412844,0.7504945118781112,0.9234483936762863,1.293771738334001,0.7449280114104807,1.4010222414091187,0.8127086657115309,0.9461999173895085,1.6428571428571426,1.7362745098039212,0.2115869017632242,0.7229219143576827,1.3373983739837398,1.9819508448540706,,,,,,,,,,0.7449280114104806,0.7449280114104806,1.0,1.0,0.9337073708633694,0.7449280114104806,0.5717014172636499
242,0.9774937132970873,0.8323732829488732,1.0241069690109654,0.6653174454409281,0.828509906584739,0.6496562034759519,0.8127796296052359,1.0583864118895967,0.8235294117647058,0.7781137221288785,0.4777397260273972,1.0533866057838661,0.8036529680365296,1.5698924731182793,,,,,,,,,,0.828509906584739,0.828509906584739,1.0,1.0,0.9600998005116045,0.828509906584739,2.375363547825457
243,0.9795753039288111,0.922320300746908,1.0208025115101016,0.6819194248313258,0.9218828486190916,0.6684876756685878,0.9036328525951375,0.9980237154150198,0.7833333333333333,0.7848844884488448,inf,0.7991681521093286,0.646264486754967,0.9593503854824794,,,,,,,,,,0.9218828486190915,0.9218828486190916,1.0000000000000002,1.0000000000000002,0.9811033655084739,0.9218828486190918,0.9744198694076313
244,1.010947821751273,0.7917889436627731,0.9888867225580036,0.5792535782837389,0.7890847370589412,0.5857633286706028,0.800687202690529,0.9941176470588236,0.6950000000000001,0.6990060222215306,,0.47368421052631576,0.7411764705882353,1.0817805383022774,,,,,,,,,,0.7890847370589413,0.7890847370589413,0.9999999999999999,0.9999999999999999,0.9425685111208878,0.7890847370589412,0.7391783453444677
245,0.956584782086306,0.8843052048485746,1.0440474289733621,0.9035005495820019,0.8798324048753932,0.8653826320353551,0.8469970718022072,1.0543302241222956,0.6964285714285714,0.6605098146128681,,0.5595999053030303,1.1818181818181817,1.2260128981440457,,,,,,,,,,0.8798324048753932,0.8798324048753932,1.0000000000000002,1.0000000000000002,0.9686867945653317,0.8798324048753932,0.5810170161479827
246,0.9778586491505261,0.8307245109050996,1.0222984440194,0.6995453120239775,0.8259074313878718,0.6845743231285039,0.8129909740617405,0.9970059880239521,0.9085714285714286,0.9114629948364887,inf,0.5817819148936172,0.9251669702489375,2.2412335655939657,,,,,,,,,,0.8259074313878716,0.8259074313878718,1.0,1.0,0.9536596267749728,0.8259074313878718,1.3234089071108466
247,0.9177746853222961,0.8791210515902546,1.0912426045744166,0.6880718907843004,0.8747605520216051,0.630539655354734,0.805614280276927,1.0965448139176392,0.6237373737373737,0.5688486459431055,0.0,1.0339539978094194,0.8317307692307692,1.239933355734767,,,,,,,,,,0.8747605520216051,0.8747605520216051,1.0,1.0,0.9675018126261804,0.8747605520216052,1.223376171927835
248,0.9533617176942353,0.80735292982442,1.049614250621631,0.7213750262968724,0.8022428598821869,0.6872763227460077,0.769190153930759,1.0680851063829788,0.7595238095238095,0.7111079491557579,0.20766773162939295,0.6374245651402201,0.7410714285714286,1.556646781789639,,,,,,,,,,0.8022428598821869,0.8022428598821869,1.0,1.0,0.9457395558592939,0.8022428598821868,1.609479909677325
249,0.9407891157374672,0.6100705208527312,1.0607060254605223,0.5304644958173494,0.6080692462081296,0.5001051027187668,0.5751551383785714,1.0685483870967742,0.38095238095238093,0.3565139263252471,0.0,0.4634803921568627,0.750968992248062,1.7865252547629598,,,,,,,,,,0.6080692462081296,0.6080692462081296,1.0000000000000002,1.0000000000000002,0.8871115628738471,0.6080692462081299,1.4541441399098525
250,0.9483754920455942,0.6017298529012878,1.0535934158512086,0.4759866239246081,0.5981560502288666,0.4517744860241499,0.5711215008069732,1.046032504780115,0.3655310239817282,0.3494477984528379,0.125,0.7171052631578948,0.6326071513142316,1.2479185938945423,,,,,,,,,,0.5981560502288665,0.5981560502288665,1.0,1.0,0.890902371996886,0.5981560502288665,1.5066353602396418
251,0.9105733858360063,1.1376228474097947,1.0962261182083126,0.5565319328519878,1.1378691170053084,0.507679869698408,1.0377629473644925,1.092885375494071,0.5125,0.46892298435619734,,1.9949127906976745,0.695020870602266,1.01930656308905,,,,,,,,,,1.1378691170053084,1.1378691170053084,0.9999999999999999,0.9999999999999999,1.0319700275825774,1.1378691170053084,1.9280582923417862
252,0.9751197260743831,1.0924125838713903,1.0262170103569155,1.1221733608459545,1.0868604733730858,1.093504947392446,1.0645045614790651,1.0229689679218967,1.1111111111111112,1.0861678004535147,,1.035598705501618,1.2410714285714286,1.247265625,,,,,,,,,,1.0868604733730858,1.0868604733730858,1.0,1.0,1.0232108157887145,1.0868604733730858,1.3596050565693132
253,1.0210888779275393,0.8393579391095499,0.9790747528965111,1.0924598236322167,0.8356260000299971,1.1158083698341046,0.8572970674265772,0.9670781893004116,1.25,1.2925531914893618,,0.41785714285714287,1.3026315789473684,1.2546296296296298,,,,,,,,,,0.8356260000299971,0.8356260000299971,1.0,1.0,0.9538008440513365,0.8356260000299971,0.8176424944754873
254,0.9152712616508576,0.8329705394032132,1.0915663168627596,0.6874484359709674,0.8278911648838525,0.6297816513168406,0.7630966306227258,1.1111111111111112,0.6153846153846154,0.5538461538461539,inf,0.33451397087760726,1.0197534459328286,1.8135001126887538,,,,,,,,,,0.8278911648838525,0.8278911648838525,1.0,1.0,0.9511543919863685,0.8278911648838526,1.3753705586343248
255,0.9794409166347201,0.8953998891828836,1.0219724162625745,0.8247242482652689,0.8905971413074836,0.8069926489808531,0.8761487356840503,1.021516393442623,0.6607142857142857,0.6467806525270852,,0.9226190476190477,0.9835164835164836,1.2352941176470589,,,,,,,,,,0.8905971413074836,0.8905971413074835,0.9999999999999998,0.9999999999999998,0.9704906771120566,0.8905971413074834,0.6022235618460875
256,1.0016519482756348,0.9077559169580657,0.9989826153328308,0.8963208450889917,0.9046536666948621,0.8972336768747118,0.9086803944587452,0.9920199203187251,0.8630952380952381,0.8699817955351156,0.44202898550724634,0.7696040372670808,0.9868032914143766,1.3486759142496847,,,,,,,,,,0.9046536666948621,0.9046536666948619,0.9999999999999999,0.9999999999999999,0.9752666852271694,0.9046536666948619,1.1945549209351785
257,0.972607505669814,1.1049454585234382,1.0294743220349463,1.2966565125073835,1.098777410046071,1.2595326418091735,1.0733103632340333,1.0320568759303936,1.6318681318681318,1.581238713094135,,1.2448186528497411,1.621212121212121,1.4745331069609506,,,,,,,,,,1.098777410046071,1.098777410046071,1.0000000000000002,1.0000000000000002,1.0254012817947487,1.098777410046071,0.9544752483108454
258,0.9993541250203988,0.8318403914017715,1.0014206117207927,0.7394739786893011,0.8271073944158083,0.7384330301211541,0.8306599930199987,0.992,0.7857142857142857,0.7920506912442397,0.0,1.193020304568528,0.8669326856349757,1.6261978590772879,,,,,,,,,,0.8271073944158083,0.8271073944158083,1.0,1.0,0.9522647121333143,0.8271073944158084,1.068906567818051
259,1.0426318781008184,0.4140435954673012,0.957693907631494,0.6187661356437117,0.41116100823365787,0.6461001064254484,0.4323339557325647,0.9629666220817121,0.9615384615384616,0.9984428526938649,0.0,0.20987795987795987,0.573170731707317,1.7113755780226299,,,,,,,,,,0.41116100823365787,0.41116100823365787,1.0,1.0,0.8062837656034503,0.41116100823365787,1.0206190804974264
260,0.97033552820881,1.1189028043795504,1.0308225660922756,1.1613517908259914,1.113376891324111,1.126626277913702,1.0854465561625957,1.028,1.1875,1.1551556420233462,,1.0664335664335665,1.5258620689655173,1.3544626593806923,,,,,,,,,,1.113376891324111,1.113376891324111,1.0,1.0,1.0288538362347492,1.113376891324111,0.8747315405361697
261,0.9347745672178484,0.6391182139699251,1.0694437220994235,0.6466609556994938,0.6390132910442591,0.6046703929684439,0.5976174348990267,1.0769230769230769,0.6,0.5571428571428572,0.0,0.47527777777777774,0.5478723404255319,0.8935692921236291,,,,,,,,,,0.6390132910442591,0.639013291044259,1.0,1.0,0.897535759952945,0.639013291044259,0.8853012998636928
262,0.9890407877188576,1.1988703090159842,1.0120344873079632,1.0469860859809315,1.1961893051880002,1.0345359759092205,1.1846140858351664,1.0038022813688212,1.1,1.0958333333333334,,2.351449275362319,0.9857142857142858,1.2049306625577811,,,,,,,,,,1.1961893051880002,1.1961893051880002,1.0,1.0,1.0484863684521324,1.1961893051880004,1.1334574472496617
263,0.9829016457607966,0.8546982310563627,1.017595235282686,0.7450243237378932,0.8498318483061054,0.7321421088630997,0.8399196190614471,1.0187265917602997,0.64,0.6282352941176471,,0.6857991681521094,0.8716540837336995,1.6695239028213167,,,,,,,,,,0.8498318483061053,0.8498318483061054,1.0,1.0,0.9597099286554935,0.8498318483061054,1.0248288978783318
264,0.9836363562142947,1.286030154236256,1.0170983277758334,0.956958799156844,1.2773705258522638,0.9408714703616698,1.2644108431959735,1.0239043824701195,1.1428571428571428,1.1161756531406337,,3.5095890410958903,1.1619718309859155,1.363910318225651,,,,,,,,,,1.2773705258522636,1.2773705258522636,1.0,1.0,1.0697568985394499,1.2773705258522636,0.9863620073035566
265,0.9545221686321583,1.0169903628436687,1.0466048746953347,0.8965774837785009,1.0148575235145132,0.8566532109002623,0.9717041425531698,1.0474308300395256,0.9444444444444444,0.9016771488469602,,0.7484662576687117,1.0202702702702702,1.2715658564160544,,,,,,,,,,1.0148575235145132,1.0148575235145132,1.0000000000000002,1.0000000000000002,1.0039524679538665,1.0148575235145134,1.1907708794216783
266,0.9443285562884981,1.4039506799690733,1.0597725546630237,1.0063263458807952,1.3969908364197186,0.9495682138522025,1.3247660129612162,1.0592885375494072,0.9444444444444444,0.8915837479270314,,3.215986394557823,1.7413379073756432,1.766268081002893,,,,,,,,,,1.3969908364197188,1.3969908364197186,1.0,1.0,1.0961661831362255,1.3969908364197186,0.9726991861206835
267,0.9713755264541666,1.2680289986603235,1.0312341423782203,1.2296657292961704,1.2635127095369576,1.1924214674082934,1.229622785506315,1.0294695481335954,1.1111111111111112,1.0793044953350297,inf,7.340425531914893,1.5866666666666667,1.0903703703703704,,,,,,,,,,1.2635127095369574,1.2635127095369576,1.0,1.0,1.0621856430341436,1.2635127095369576,0.7851447289077075
268,0.9615767630276797,0.6496770151351805,1.0463605253422124,0.4897614744884388,0.6502549723321036,0.4680618798461097,0.6208921298160628,1.0340909090909092,1.25,1.2087912087912087,0.0,0.8324810606060606,0.3914027149321267,1.254605747973471,,,,,,,,,,0.6502549723321036,0.6502549723321036,1.0,1.0,0.9034826766957573,0.6502549723321035,2.131126959163608
269,1.0236743769896473,1.0637840119929742,0.9766528775510052,0.9204112746723401,1.0568707541246507,0.9424139280481176,1.0892140252127795,0.9852941176470589,0.6153846153846154,0.624569460390356,inf,1.3206214689265536,1.6666666666666667,0.9574561403508772,,,,,,,,,,1.0568707541246507,1.0568707541246507,1.0000000000000002,1.0000000000000002,1.0141854886083301,1.0568707541246511,0.7247124913774907
270,0.949652967664699,1.1646233180261347,1.0537122681060684,1.1174309265953848,1.1603886923602955,1.060470649625815,1.105257435856711,1.0483091787439613,1.2857142857142856,1.226464779460171,,inf,1.4375,1.456928958266964,,,,,,,,,,1.1603886923602955,1.1603886923602955,1.0,1.0,1.0430213255078482,1.1603886923602955,0.7371203004657042
271,1.042614633481179,0.9058467982976793,0.9591469904355516,0.9509499478224639,0.9023331737665109,0.9914536868280379,0.9444289708588642,0.9613143340919836,0.8,0.8321951219512196,,,1.1468705547652915,1.544318181818182,,,,,,,,,,0.9023331737665109,0.9023331737665108,1.0,1.0,0.9682716961463855,0.9023331737665107,1.0144811003937528
272,0.9955435007608591,1.04405653060918,1.0048848435110909,1.2294263008361208,1.0395855756158285,1.2234499399652525,1.0389812525035782,1.0049019607843137,1.0,0.9951219512195122,,inf,1.6216216216216217,1.7331782125859334,,,,,,,,,,1.0395855756158285,1.0395855756158285,1.0,1.0,1.0124060793920024,1.0395855756158285,0.7751234773761247
273,1.0130099832158002,1.0732283843671575,0.9875009181887492,1.975050181728715,1.068851820876008,2.0000489876242464,1.0868125070019257,0.9892487238926129,1.6442307692307692,1.6619751021924936,,,1.893669985775249,1.391891891891892,,,,,,,,,,1.0688518208760083,1.0688518208760083,1.0,1.0,1.0207606152390158,1.0688518208760083,0.5994551839378057
274,1.013202259487493,1.0783654059250067,0.9867377104538475,1.0881440672564588,1.0742281335686026,1.1027692816497023,1.0928592463328988,0.9852941176470589,1.0,1.0149253731343284,,,1.3833333333333333,1.1148975468975468,,,,,,,,,,1.0742281335686026,1.0742281335686026,1.0,1.0,1.0245526182607771,1.0742281335686026,1.013783481358059
275,0.9899013038345488,1.4542423653756842,1.010400600686499,2.0538287292563773,1.4472611694418305,2.0326875576925003,1.4392730845061728,1.0205314009661837,2.1875,2.143566602803267,,inf,2.65,1.4243311913845484,,,,,,,,,,1.4472611694418307,1.4472611694418305,1.0,1.0,1.1190659149814817,1.4472611694418305,0.789824651351815
276,1.0112477622578389,1.04822588611213,0.9884847506206729,1.040753192642747,1.043352283988806,1.0528773313256603,1.0604370395349316,0.9870753935376968,1.1454545454545455,1.1605194805194807,,inf,1.198051948051948,1.198581560283688,,,,,,,,,,1.0433522839888063,1.0433522839888063,1.0,1.0,1.0134139437583605,1.0433522839888063,0.980651632764205
277,0.9647972732135105,1.1768289361105608,1.0370220119772893,1.1018138484288258,1.1700802458694748,1.0624787475127921,1.1348157729715898,1.0341463414634147,1.1428571428571428,1.105121293800539,,inf,1.373913043478261,1.7797222222222224,,,,,,,,,,1.1700802458694748,1.1700802458694748,1.0,1.0,1.0498405902744161,1.1700802458694748,1.0803703822258646
278,0.9858672636731299,1.3156322637772684,1.0139664771909818,1.3546146158333259,1.3101087273945873,1.3359560764169798,1.2975107211205925,1.0138888888888888,1.75,1.726027397260274,,inf,1.5517241379310345,1.115437724385529,,,,,,,,,,1.3101087273945873,1.310108727394587,1.0,1.0,1.0856327805764514,1.3101087273945868,1.055378797088428
279,0.9592250026407307,1.269857136454772,1.0423587512852954,1.5218256917089006,1.269601148410164,1.4599826497665909,1.2182534419065951,1.037037037037037,1.4583333333333333,1.40625,,,1.5576923076923077,1.0395622895622894,,,,,,,,,,1.269601148410164,1.269601148410164,1.0,1.0,1.0757691863790972,1.269601148410164,1.21087130961372
280,0.9844698030302717,1.0345818795057573,1.0155690075834154,1.2490842570591287,1.032594292531897,1.2299358482051286,1.0187225295759683,1.0102564102564102,1.4285714285714286,1.4140681653372007,,inf,1.1497326203208558,1.031787123133277,,,,,,,,,,1.032594292531897,1.032594292531897,1.0,1.0,1.0097985565645717,1.032594292531897,1.1875560148440503
281,0.9536531534596906,1.3971429122620045,1.0486235293128714,1.5245579587359195,1.3914097871026083,1.4538658690358703,1.332358919294426,1.0471204188481675,1.5,1.4324999999999999,,inf,2.0,1.4024390243902438,,,,,,,,,,1.3914097871026083,1.391409787102608,0.9999999999999999,0.9999999999999999,1.1178393866739411,1.3914097871026079,0.7118446358417538
282,1.0212178061537354,1.153973952885268,0.9796951374993728,1.682006203714758,1.1522059940706817,1.7168668782277465,1.1778907494346824,0.979381443298969,1.6666666666666665,1.701754385964912,,,1.8636363636363638,1.5734423804044058,,,,,,,,,,1.1522059940706817,1.1522059940706817,1.0,1.0,1.0505773994958856,1.1522059940706817,1.142223955072886
283,0.9695587529320333,1.247442321348502,1.0314707737823317,1.3654165302383507,1.2425350772060675,1.3237568770188837,1.209382129921353,1.0308743405690564,0.9444444444444444,0.9160879629629629,,,1.6949999999999998,0.9842258748674444,,,,,,,,,,1.2425350772060675,1.2425350772060675,1.0,1.0,1.0809191749262164,1.2425350772060675,0.9357772025511528
284,0.9721238074796168,1.421244797266921,1.0293501372564768,1.5824744962770234,1.4174457920026264,1.5373532000730266,1.3807210063145499,1.0207253886010363,1.6666666666666665,1.632825719120135,,,2.0,1.3674025200191835,,,,,,,,,,1.4174457920026264,1.4174457920026264,1.0000000000000002,1.0000000000000002,1.1302726468272888,1.4174457920026264,1.2170847551870416
285,1.018818932151066,0.956384934303829,0.9817868621725522,0.8812974564104116,0.9521497504675384,0.8976464142738964,0.9741268407151911,0.9817232375979112,0.888888888888889,0.905437352245863,,,1.0166666666666666,1.4576194852941178,,,,,,,,,,0.9521497504675384,0.9521497504675385,1.0,1.0,0.9819499711754952,0.9521497504675385,0.8358178487934567
286,0.9897941569641723,1.2363370175892894,1.0101703983420558,1.4630604807116663,1.2307817105689531,1.4483321242492644,1.2239008755332024,1.0102564102564102,1.5,1.484771573604061,,inf,1.6025641025641026,1.4334659593280281,,,,,,,,,,1.2307817105689534,1.2307817105689531,1.0,1.0,1.066548923958823,1.2307817105689534,1.0236722179816857
287,1.0214852043250153,0.8129263579168368,0.9790347743363087,0.6339946497487947,0.809336675381702,0.6475711245073823,0.8303345082588335,0.9793280273489664,1.0,1.0211083263714844,,,0.6967171717171717,1.2477810871183919,,,,,,,,,,0.809336675381702,0.8093366753817018,1.0,1.0,0.9300226033980824,0.8093366753817018,0.8169708245098697
288,0.9994852024416356,0.8087236378810033,0.9987680583487875,0.7501638756694786,0.8045972286904187,0.7510889258782116,0.809720021513487,0.9900635553025992,0.8654970760233918,0.8742337772141195,,0.5082690129343274,1.005371676614216,1.5017921146953406,,,,,,,,,,0.8045972286904188,0.8045972286904187,1.0,1.0,0.9466099783855839,0.8045972286904186,1.396919383183565
289,0.9375810951736181,0.9019877536137068,1.0655232449613656,0.6113206353686012,0.8984983493610694,0.5737288455703831,0.8465171146758315,1.0757749712973594,0.6814285714285714,0.6334693877551021,inf,0.7325757575757575,0.7821782178217822,1.4169008875739646,,,,,,,,,,0.8984983493610695,0.8984983493610694,0.9999999999999999,0.9999999999999999,0.9723004646806186,0.8984983493610693,1.3792475384793959
290,1.009735328868227,0.9279200892665946,0.9912704275866999,0.7076185662609933,0.9217676801646258,0.7138501730387821,0.936091770159698,0.974757281553398,0.711304347826087,0.7297245799411052,inf,0.6818181818181818,1.319767441860465,1.7283732660781843,,,,,,,,,,0.9217676801646257,0.9217676801646257,1.0,1.0,0.979447673271691,0.9217676801646257,1.112495492321752
291,0.9273283996133903,0.8771610913924044,1.076864921541973,0.6657046805766158,0.8741929264815255,0.618187737425887,0.8145506938593834,1.091405209412461,0.4318181818181819,0.3956572904180415,0.0,0.9719234079173837,0.9798989898989898,1.3194871794871794,,,,,,,,,,0.8741929264815256,0.8741929264815254,0.9999999999999999,0.9999999999999999,0.9664165725237721,0.8741929264815252,1.3790285228676484
292,0.982372666932037,0.9834404958685024,1.0194406245679901,0.7549745085546298,0.9795759340320814,0.7405772369542564,0.9646865286508608,0.9845559845559846,0.7104166666666667,0.7215604575163399,inf,0.7681481481481481,1.1887755102040818,1.626639344262295,,,,,,,,,,0.9795759340320814,0.9795759340320815,1.0,1.0,0.9947842519430662,0.9795759340320813,1.2131507628890206
293,0.9417161423753848,1.0152269323482366,1.0625241673811805,0.9160165438565219,1.010147120200311,0.8621135844979766,0.95548584813797,1.0608886427536848,0.98,0.9237354085603113,0.3386243386243386,0.9712361712361712,1.3888888888888888,1.0424236918604652,,,,,,,,,,1.010147120200311,1.010147120200311,1.0,1.0,1.00248988452853,1.010147120200311,0.9866827176072355
294,0.9837747769780345,0.690783598601469,1.0170741761508522,1.0038306871420606,0.6872210509339636,0.9869788366283059,0.6791870394505151,1.0515508621569227,0.8948717948717949,0.850950226244344,0.3197969543147208,0.3197969543147208,1.049599083619702,1.0004842831017058,,,,,,,,,,0.6872210509339638,0.6872210509339637,1.0,1.0,0.9069532069605133,0.6872210509339636,0.7707334261133363
295,0.967428603917369,0.9761737195644361,1.0332526691937216,1.0005536044082828,0.9691625479038508,0.9683542244117138,0.9447587395377413,1.0212355212355213,1.0555555555555556,1.0335072422336573,,0.8469656992084433,1.364873417721519,1.7508780332056193,,,,,,,,,,0.9691625479038508,0.9691625479038508,1.0,1.0,0.991975173183093,0.9691625479038508,1.1482784353877453
296,0.9308622138082548,1.092816799516793,1.0745507705605575,1.1107944101748872,1.0874340295432443,1.0337291085794136,1.0169987584176283,1.0622608300686993,0.8783333333333333,0.8269261294261294,inf,1.1653272101033294,1.1372180451127818,1.526111111111111,,,,,,,,,,1.0874340295432443,1.0874340295432443,0.9999999999999999,0.9999999999999999,1.020668894453086,1.0874340295432443,1.2166666919435418
297,0.9834656522168447,1.1699431680576398,1.0179019907068412,0.9968496322893785,1.16920814555625,0.9793180944397717,1.1493684642067845,1.021889400921659,0.9166666666666667,0.8970629771984173,,1.848958333333333,1.1963661774982528,1.0778560250391236,,,,,,,,,,1.16920814555625,1.16920814555625,0.9999999999999999,0.9999999999999999,1.0403099991887124,1.1692081455562497,1.3627093767943732
298,0.9952475349632093,1.1954579334112516,1.0053097345132744,1.5048308178900167,1.1920364678176736,1.496882767795527,1.1891438950305582,1.0,1.5902777777777777,1.5902777777777777,inf,0.999201081612586,1.4761904761904763,1.3897223923249642,,,,,,,,,,1.1920364678176738,1.1920364678176738,0.9999999999999999,0.9999999999999999,1.0456731417494858,1.1920364678176738,0.6883049847749735
299,0.9569367097697283,1.1760012742428199,1.0449206355605933,1.1249052111211602,1.1701232266242214,1.0765460581471333,1.1254455097212288,1.038207490001212,0.8181818181818182,0.7880755608028335,inf,1.8208333333333333,1.6220238095238095,0.988942193920358,,,,,,,,,,1.1701232266242214,1.1701232266242214,1.0,1.0,1.0413371817486703,1.1701232266242216,0.9481104312728486
300,1.0058836020071533,1.0685585284548864,0.993585232507043,1.1783160181349897,1.061799379230409,1.1859234005453714,1.0754572359747134,1.0,1.2166666666666668,1.2166666666666668,inf,0.9366697986931208,1.4675324675324675,1.9597876004592423,,,,,,,,,,1.0617993792304092,1.0617993792304092,1.0,1.0,1.0153632763986074,1.061799379230409,0.8038139597436315
301,1.0554176363971621,0.6889207835297886,0.9473959149047245,0.7493637271504532,0.6860097058690418,0.7909720902963925,0.7271730568936117,0.9356223175965666,0.8285714285714286,0.8855832241153343,,0.393625,0.8743939393939394,1.4059572268527494,,,,,,,,,,0.6860097058690419,0.6860097058690419,1.0,1.0,0.906466525708823,0.6860097058690418,0.928502311792561
302,1.0395988082682972,0.9652777279650094,0.961999609451279,1.4040336647500742,0.959143392126324,1.45949512217299,1.0034077897096276,0.9791077044025157,1.2794486215538847,1.3065673244946052,inf,0.8261437908496732,1.7647058823529411,1.2586065885575168,,,,,,,,,,0.9591433921263242,0.9591433921263242,1.0,1.0,0.9892501721832682,0.9591433921263239,0.9416874291066455
303,0.9508793784173422,0.8615239148191602,1.050125109609462,0.7741227316686188,0.8590449807018099,0.7371718465379019,0.8204008139589505,1.033296572785884,0.5634920634920635,0.5453552574162776,,0.3164473684210526,1.2237871674491392,1.2640332640332639,,,,,,,,,,0.85904498070181,0.8590449807018099,0.9999999999999998,0.9999999999999998,0.9584933153771523,0.8590449807018097,1.0998783243198673
304,0.9400410652651197,1.3129561470575708,1.0635571083393196,1.2672244953932705,1.306583540338238,1.1914964278429443,1.2344952017740476,1.0719315245478036,1.0833333333333335,1.0108225108225108,,inf,1.9560276679841897,1.0483018867924527,,,,,,,,,,1.306583540338238,1.306583540338238,1.0,1.0,1.0785363561991175,1.3065835403382384,0.7603812168138777
305,0.9506099972549231,1.0207225061058511,1.0509348687698588,0.7659676498205416,1.0173036453422837,0.7288440591546581,0.9712518740404694,1.0406061584840653,1.0833333333333335,1.0411579303213492,,1.018867924528302,0.8353658536585366,1.4038690476190476,,,,,,,,,,1.0173036453422837,1.0173036453422835,1.0,1.0,1.0047248087333842,1.0173036453422835,0.9585046014011482
306,1.0366304532594226,0.6739090069931584,0.9638892038760489,0.9642187942149032,0.673221639353656,1.000342158042388,0.6991564804329171,0.9651162790697675,0.75,0.7771084337349398,,,1.0910204081632653,1.3211944001417686,,,,,,,,,,0.6732216393536559,0.673221639353656,1.0,1.0,0.8762625803587996,0.6732216393536559,0.7471886230395688
307,0.9918048482601601,0.8739230643994231,1.0082293894026164,1.1629684715658108,0.871237938141795,1.1534760901446097,0.866790175919002,1.0155647316784302,1.1437908496732025,1.1261456165333916,,0.0,1.1102693602693603,1.163141380583241,,,,,,,,,,0.871237938141795,0.871237938141795,1.0,1.0,0.9571404491900117,0.8712379381417948,1.0264332580000521
308,1.0094550405674982,1.00489063119243,0.9910786128678909,1.0484686780376506,1.0012487498163296,1.0579066724153097,1.0139364424308734,0.9837837837837838,1.0,1.0164835164835164,,inf,1.5484022556390977,2.0395562978377555,,,,,,,,,,1.0012487498163296,1.0012487498163296,1.0,1.0,1.0003942981155847,1.0012487498163296,1.1882547519540854
309,1.0598807125486205,0.8246280376942039,0.9426633829008508,0.9016911647852746,0.8210237654334974,0.9565522810606424,0.8747863819507636,0.9324670768566494,1.0833333333333335,1.161775812124974,,inf,1.3571428571428572,1.4744483159117305,,,,,,,,,,0.8210237654334975,0.8210237654334974,1.0,1.0,0.9392617789024645,0.8210237654334973,1.070621626353911
310,1.0049266808413673,1.0893880834288057,0.9940418100461783,0.8143200104173622,1.0858308207513412,0.8192052855468874,1.0959329643677842,0.9986631016042781,0.75,0.7508191837950551,,1.398049645390071,0.990819209039548,1.0913258021691756,,,,,,,,,,1.0858308207513412,1.0858308207513412,1.0,1.0,1.0153767385345243,1.0858308207513412,1.025938215403975
311,1.1148651609293,1.1353238889410298,0.8966847884449756,1.2473403253526674,1.1300128418914204,1.3910361948836913,1.2660326805183204,0.8914728682170543,1.2786377708978327,1.434259739794914,,inf,1.6779788838612368,1.5486079328756674,,,,,,,,,,1.1300128418914204,1.1300128418914206,1.0,1.0,1.0295288799168207,1.1300128418914206,0.8193841608684942
312,0.9647821174616802,1.4678957349222652,1.0362918806158161,1.2293629511122264,1.4638576079500791,1.1862986171969894,1.4163845856652504,1.0377548840411137,1.1544117647058822,1.1123180889354507,,inf,1.5,1.1161833154314356,,,,,,,,,,1.4638576079500791,1.4638576079500794,1.0,1.0,1.1068853130661136,1.4638576079500796,0.8427987603994591
313,1.1479122877065953,1.3466718464967173,0.8734180502946147,1.1647099195638035,1.339103063126922,1.3332697564772584,1.5408091747125976,0.8662790046272955,1.1261904761904762,1.2987556310149477,,1.6056708784596874,1.455988455988456,1.5417016240186974,,,,,,,,,,1.3391030631269218,1.339103063126922,1.0,1.0,1.0289094678046447,1.3391030631269218,0.9088345564625824
314,0.9533427025311272,1.6053170825997285,1.0497471963162845,1.0579345535468354,1.6005581164960616,1.0093945096047567,1.53332862554627,1.061143862464891,0.8194444444444444,0.7726148923792904,,,1.420995670995671,1.2140790462526474,,,,,,,,,,1.6005581164960616,1.6005581164960616,1.0,1.0,1.1113225580600088,1.6005581164960616,1.2456187078057972
315,1.0108585256880054,0.7436447509639418,0.9903955426383144,0.8214819079665907,0.7435906463275846,0.8294483831981752,0.7508566004209853,1.0078947368421054,0.9,0.8929564790575917,,0.2272727272727273,1.0298507462686568,1.31,,,,,,,,,,0.7435906463275848,0.7435906463275848,1.0,1.0,0.9183369343051206,0.7435906463275848,1.7323925440295085
316,0.9884635711955726,1.2304819824259718,1.0125680626250109,1.1641212749046623,1.226911220485202,1.1496721040852687,1.2152090804705753,1.0396039603960396,1.1433333333333335,1.0997777777777777,,2.3417366946778713,1.2289156626506024,0.9065096952908588,,,,,,,,,,1.2269112204852017,1.2269112204852017,1.0,1.0,1.057042303511603,1.2269112204852015,0.9375082903066829
317,0.9163212085717714,1.0359358169645916,1.0898288061484633,0.82992711234029,1.0322641962813632,0.7615206666963583,0.9505492169519723,1.0714285714285714,0.6904761904761905,0.6444989360052988,,1.2652582159624415,1.3450704225352113,1.1078735565986122,,,,,,,,,,1.0322641962813635,1.0322641962813632,0.9999999999999999,0.9999999999999999,1.0090898079875,1.0322641962813632,0.8732653374913849
318,1.0233557556944657,0.8712987154526133,0.9785575530093507,1.4789233670184092,0.8682207586967265,1.511329979999937,0.8903908745817912,0.9900497512437811,1.625,1.641331658291457,,0.8708333333333333,1.3307692307692307,1.3749214759784776,,,,,,,,,,0.8682207586967267,0.8682207586967265,1.0,1.0,0.9589925231494301,0.8682207586967265,0.8318226919559013
319,0.9103107206290715,0.978695424954096,1.0983515314979648,0.9544867521236349,0.9744762712319761,0.8690175456139049,0.8910584606909245,1.0891089108910892,0.7777777777777778,0.7141414141414142,,inf,1.24,1.1600330679278048,,,,,,,,,,0.9744762712319761,0.9744762712319761,1.0000000000000002,1.0000000000000002,0.9923664947547954,0.9744762712319763,0.9608884427083192
320,1.0106872083271858,0.8292758369631454,0.9893520562204348,1.6045176804639678,0.8247080982666373,1.6217863705601578,0.8382009535929815,0.9951923076923077,1.4833333333333334,1.490499194847021,,0.8671875,1.6842105263157894,1.5053487053487054,,,,,,,,,,0.8247080982666373,0.8247080982666373,1.0,1.0,0.945361974474252,0.8247080982666372,0.541949508949682
321,0.988953809247501,0.7602319031028939,1.0110635376279986,0.6331446761885628,0.7571487945751257,0.6262165581564316,0.7519131895132304,0.9906542056074766,0.6666666666666667,0.6729559748427674,,0.103988603988604,0.8676470588235294,1.7175181807195514,,,,,,,,,,0.7571487945751256,0.7571487945751257,1.0,1.0,0.9192674149571856,0.7571487945751256,1.242533627763049
322,1.0001655710063946,0.6664866039555539,1.0003519835045966,0.9846437648130266,0.6629433019261692,0.984297308396852,0.6662520942084895,0.9931818181818182,1.5,1.5104699665463772,,0.1366886688668867,1.0394736842105263,1.6681265873932118,,,,,,,,,,0.6629433019261692,0.6629433019261692,1.0,1.0,0.8865710515258586,0.662943301926169,1.122129691311084
323,0.9755917503748898,0.8997538303607953,1.0242227979274612,0.522761893593017,0.8959213219932759,0.5103986111721375,0.8784747148583965,1.0252927747008838,0.4642857142857143,0.4527546444586804,,0.41666666666666663,0.7793949771689497,0.9290981281905841,,,,,,,,,,0.8959213219932758,0.8959213219932758,1.0,1.0,0.9692928147592441,0.8959213219932759,1.3614964366858873
324,0.9995287332116742,0.8388994521244437,1.000721636016141,0.8527906442242128,0.8349471453220423,0.8521756936155676,0.8382944969866526,1.002309468822171,0.8012820512820513,0.7994357792744888,,0.22435897435897434,1.2040816326530612,1.4807142857142859,,,,,,,,,,0.8349471453220423,0.8349471453220423,1.0,1.0,0.9476478999658241,0.8349471453220423,1.0566586693884015
325,1.0303874130156552,1.1972809877043862,0.971356912501328,1.8405985821865807,1.1923632534918558,1.8948737531651063,1.2325866025554293,0.9818181818181818,2.5,2.5462962962962963,,,1.9181681681681682,0.9738213065360467,,,,,,,,,,1.1923632534918558,1.1923632534918558,0.9999999999999999,0.9999999999999999,1.0551395099655037,1.1923632534918553,1.0684540196963432
326,0.9551553481453096,1.125996811284519,1.047418049108267,1.2340668165311117,1.1202279345835038,1.178198931968293,1.075021424294531,1.0542986425339367,0.888888888888889,0.843109203624225,,inf,2.0348837209302326,1.594126358584402,,,,,,,,,,1.1202279345835038,1.1202279345835038,1.0,1.0,1.03403196293027,1.1202279345835038,1.1348294240574601
327,0.9354772249735325,0.9406021329989187,1.0692750773906599,0.7528027740653528,0.9357843028054065,0.704030908984408,0.8796633328335614,1.0517241379310345,0.9666666666666668,0.9191256830601093,,0.7674418604651163,0.963768115942029,1.4157248157248157,,,,,,,,,,0.9357843028054065,0.9357843028054065,1.0,1.0,0.9812409966751499,0.9357843028054065,1.0632202130819852
328,0.9972509552446882,1.0176635392524198,1.0036572148137668,0.92375714895637,1.0134978804143753,0.9203911097781401,1.013955366017513,0.9949290060851927,1.0,1.0050978843675964,,inf,1.0378787878787878,1.330902649033906,,,,,,,,,,1.0134978804143753,1.0134978804143753,1.0,1.0,1.0037079009927723,1.013497880414375,0.8504941149823766
329,0.8998491099862004,1.2028226526100712,1.110804723068002,1.0829597119951966,1.1966478454596117,0.9749328115531286,1.0828383019577572,1.101920302921024,1.1818181818181819,1.0725254475254475,,1.8102780199554394,1.1396634615384615,1.1951923076923077,,,,,,,,,,1.1966478454596117,1.1966478454596117,1.0,1.0,1.0489663701502785,1.1966478454596117,1.4514932861026448
330,0.9356587883571186,1.2431637560181754,1.0695521668638532,0.7617208966313751,1.2368047330449339,0.7121867860230686,1.1623218508486115,1.0743801652892562,0.7857142857142857,0.7313186813186813,,4.666666666666666,0.8682587492828457,1.2002133712660026,,,,,,,,,,1.2368047330449343,1.2368047330449343,1.0,1.0,1.059002930862596,1.2368047330449343,0.7132811071273901
331,0.9013214910280294,1.3070037497088212,1.1086916261271096,1.177366556816224,1.3042499595002224,1.0619423205331344,1.1788703990137628,1.0991379310344827,1.1818181818181819,1.075222816399287,,inf,1.4895344287949923,1.1784125148903368,,,,,,,,,,1.3042499595002224,1.3042499595002224,1.0,1.0,1.0755515490770757,1.3042499595002222,0.777236412013451
332,0.8964642883317362,1.1506296407254366,1.1158782642605072,0.9957792530808482,1.1458032292209168,0.8923724913462272,1.0311416836638099,1.1220608194857122,0.9230769230769231,0.8228126834997063,,1.4857142857142858,1.1156978896704923,1.1168091168091168,,,,,,,,,,1.1458032292209168,1.1458032292209168,1.0,1.0,1.036780205122676,1.1458032292209168,0.876685403355685
