,psdtheta_1,psdalpha_1,psdbeta_1,psdtheta_2,psdalpha_2,psdbeta_2,psdtheta_3,psdalpha_3,psdbeta_3,psdtheta_4,psdalpha_4,psdbeta_4,psdtheta_5,psdalpha_5,psdbeta_5,psdtheta_6,psdalpha_6,psdbeta_6,psdtheta_7,psdalpha_7,psdbeta_7,psdtheta_8,psdalpha_8,psdbeta_8,psdtheta_9,psdalpha_9,psdbeta_9,psdtheta_10,psdalpha_10,psdbeta_10,psdtheta_11,psdalpha_11,psdbeta_11,psdtheta_12,psdalpha_12,psdbeta_12,psdtheta_13,psdalpha_13,psdbeta_13,psdtheta_14,psdalpha_14,psdbeta_14,Rate_Mean,RMSSD,MeanNN,SDNN,SDSD,CVNN,CVSD,MedianNN,MadNN,MCVNN,TINN,HTI,LF,HF,VHF,LFHF,LFn,HFn,LnHF,SD1,SD2,SD2SD1,CSI,CVI,CSI_Modified,SampEn,Age,Gender,Participant,Video,Video_Name,Target_Emotion,Valence,Arousal,Dominance
0,-0.13760747265947595,-0.13723843650283976,-0.11699671562701693,-0.08061196564994633,-0.08111785542590537,-0.10877306565959073,-0.14668286375538508,-0.18292906098010986,-0.2297714676791836,-0.27377882086139965,-0.2739623172967751,-0.33960668089949586,-0.35307229591202005,-0.363767088525584,-0.30274045200094224,-0.050014745168994935,-0.06590601715773944,-0.06627668876919952,-0.20470690703144234,-0.20589155050859995,-0.1633820454177967,-0.20772196859109385,-0.2028377700817429,-0.2142846067339104,-0.20208979073271446,-0.2020938958295678,-0.22454835771439044,-0.20567205165952654,-0.20327470463691094,-0.17457036095700734,-0.2393323232721019,-0.2376043085441596,-0.17481427827869686,-0.272796318653492,-0.27903377758428444,-0.2756212148826679,-0.24317717192370816,-0.2428288926827333,-0.2329581335081073,-0.21958851975973392,-0.21969274488603074,-0.2224784454270979,0.8245681457433521,-0.3177674564460818,-0.8339069031852381,-0.2457527689838342,-0.31939037544297666,-0.14385735971341088,-0.1868278686878682,-0.8319540903767787,-0.12967825889920753,-0.031374614841430296,-0.24566573877259906,-0.6927183536959508,6.447027590585914,0.06863664556056691,-0.017838254906674397,1.9897872065548363,2.373567715734642,-0.8048670987546855,0.5659316106156972,-0.31939037544297666,-0.2429376272705621,-0.0922755235479696,-0.0922755235479696,-0.2279945889191343,-0.24259005062466046,-0.5913644228236998,22,male,1,1,Searching for Bobby Fischer,calmness,4,3,2
1,-0.1391735798468682,-0.13868521846276366,-0.1175989555213763,-0.09620717917797857,-0.09633786774040204,-0.110292889068247,-0.11905141252789375,-0.10416972301110343,-0.0911781792205012,-0.13265218995849148,-0.13188285104042782,-0.2750076164604345,-0.21879434180563406,-0.22221878148396945,-0.198975105535792,-0.2119300367147529,-0.20493697312615636,-0.1445345068484069,-0.16908713244783768,-0.1702862486592905,-0.2157259053124471,-0.14792755066893332,-0.14590401862319913,-0.16167105002414953,-0.1664898225212328,-0.15798898421107774,-0.13793334946553676,-0.14698868229936082,-0.14490238599253616,-0.13496127323984464,-0.1836065874058273,-0.19908568478476796,-0.22024914277235874,-0.19051867241487347,-0.17800824455614642,-0.16768211651388912,-0.19781000550626604,-0.20359765730964696,-0.20967563179512,-0.2000443673223752,-0.20014553623310405,-0.2069110063480023,-1.553361452239301,1.6532590122865178,1.6063993226622462,0.44735515945743504,1.6576755380818466,0.1915136055477747,1.427810265137092,1.7476891036383218,0.13546727540912193,-0.09779119153647182,0.15304023453909632,-0.8899385878838826,-0.13954328420467146,0.2792097931440638,2.970371803414936,-0.308528995542768,-0.3104534722862612,-0.1177899674228274,0.9004244134349088,1.6576755380818466,0.3314459326489778,-0.7059397870232406,-0.7059397870232406,1.1676640371429836,-0.2767224824391949,0.4977386076293658,22,male,1,2,D.O.A.,surprise,3,3,1
2,-0.12768960935233695,-0.12753852946328942,-0.11041956170723588,-0.10120304145522273,-0.10125903969213207,-0.0983809038417938,-0.10576489624153636,-0.10569883799850573,0.04220901425250548,-0.1625924910875282,-0.16221838933393162,0.02538350794056456,-0.2566132668790995,-0.2621805884659121,0.00755484522104733,-0.15643684259019666,-0.15231261655902442,-0.05765953726927881,-0.17722376908671894,-0.17846066631356813,-0.1386748232432141,-0.17312679217291027,-0.16992826725580196,-0.10133898475951136,-0.1404794441911574,-0.10832412105869432,0.014033459249067862,-0.16430181495498308,-0.1621613846537805,-0.08436407130937465,-0.1670936762692408,-0.16682858330722694,-0.08712732712901416,0.02360669992779289,0.02369090169208996,0.018826942159848217,-0.2102560345565088,-0.20977784451441425,-0.1652216154251298,-0.15018097770407166,-0.15037699236829902,-0.0711932455713131,1.1012392194224256,-0.07583382532940554,-1.0779241519899418,0.1612211243070076,-0.08164086724770837,0.3105054783674278,0.14314802323270315,-0.8821937354788792,0.08123296025033858,0.18956176634916627,0.22609604171501765,0.21500674263947114,-0.3150149613258427,-0.07938610027149237,-0.29440338109916403,-0.3257985917515273,-0.3560573678406777,-0.16975325658145515,0.3376488829318599,-0.08164086724770837,0.14239188596116215,0.13740325576799514,0.13740325576799514,0.20115805109545595,0.0022423135954220547,-0.5986815327901904,22,male,1,3,The Hangover,amusement,5,4,4
3,-0.15897189919400448,-0.15812293109873288,-0.13111141116321728,-0.10067363045499617,-0.1007390001658018,-0.09796377330409567,-0.06962936969589943,-0.030775279689480694,-0.0037931935462105133,-0.16408827895738198,-0.16370514464051086,-0.052754205051229484,-0.3054915386949341,-0.3136521065286971,-0.2192970430998418,-0.11422893676838655,-0.10658341302987942,-0.08569248302903322,-0.19077243332026475,-0.19198107136149944,-0.16023644182311242,-0.1870847927290513,-0.18320416502203454,-0.164320016507806,-0.18156530121958087,-0.1811669484855077,-0.09573849717243776,-0.1857479330256941,-0.18347224775782026,-0.1562287380857053,-0.2077940884384908,-0.20670022423865828,-0.12427012320774294,-0.07861347689790091,-0.07830622611583145,-0.07880954563507651,-0.23101431517686116,-0.2306174673072526,-0.1950136266907019,-0.1935501936701192,-0.1936874766641918,-0.15888340323052105,-0.5326821549683285,0.6612737904218384,0.4789184393429283,0.4063599382129505,0.6788269827644093,0.313141964456648,0.6429006083754453,0.6261302937895353,0.231883832879254,0.12855935354842182,0.5152578553809659,0.01681409665304118,-0.3950984927009133,-0.19241406247469173,0.11661257119344967,-0.3520903161525312,-0.4049264443497224,-0.02581720434051104,0.1484372198703547,0.6788269827644093,0.3229552173420833,-0.23482774680181476,-0.23482774680181476,0.7451191505002478,-0.07835165272933453,-0.7537298323212824,22,male,1,4,The Ring,fear,4,3,2
4,-0.11048041034707984,-0.11071250523951527,-0.09903100029160912,-0.11150571307372904,-0.11133725694076514,-0.08905083057522742,0.049650632904978204,0.05001239971736916,0.05497528402843492,-0.12009256782148718,-0.1195088595662861,0.008725725651592993,-0.07476483638712995,-0.07067190850090947,-0.14563515880797534,-0.07909969369275091,-0.0789088315124524,-0.0691362919507656,-0.1024216123626554,-0.10380557631012426,-0.14343836933506324,-0.1167118632351889,-0.11626730544591693,-0.13786967050070595,0.06450195609222922,0.05861997183704725,-0.06695119581737848,-0.0890661697636767,-0.08739518300785187,-0.09168158564308716,0.00762973545254077,0.004330228949094222,-0.09644429334871514,-0.028710207032452743,-0.02845470043721988,-0.03080114143759014,-0.14573240189886238,-0.14500686960027115,-0.18646976972033769,-0.01686808846200806,-0.017255284808366887,-0.11691256499068725,1.7143515138033127,-0.943246157507768,-1.5631167308513123,-0.9183268381495652,-0.9395392353166272,-0.7564138760783903,-0.7985779385223312,-1.780521544215654,-0.6693628509369695,-0.4737270286615994,-1.4558988626086775,-0.4506882106395094,-0.3789244727644209,0.8070787125888249,-0.17912227267720315,-0.3797025864145517,-0.3910556985244382,3.5139237569401924,1.4726412984946888,-0.9395392353166272,-0.8596828238060465,-0.3365883876547869,-0.3365883876547869,-1.1836887935676703,-0.547361583554869,0.5207825670622175,22,male,1,5,300,excitement,4,4,4
5,-0.12614681530620933,-0.12600032727516478,-0.10924413364688897,-0.05500336462133766,-0.037064296083592886,0.2631933480257781,2.1547270450064664,2.1622189359946686,2.196225925186152,0.9186722440668532,1.2126585129580798,1.9627207536652844,0.4427318728225349,0.4759076057373796,0.4461704272863225,1.812368779281324,1.8333367655140853,1.1084425361136565,0.29916428795383065,0.2979548609033286,0.2847199135704433,0.11947903993821535,0.10900219964802033,0.09867794215665077,0.524706516736065,0.5402167175687645,0.6227228403958203,0.11922338539976962,0.12021208226621526,0.11158098348336687,0.6495627136714675,0.6348416194936418,0.5569281332224344,2.80550552698202,2.807603923317778,2.718896620391357,0.007961817509412323,0.009749897164810136,0.018150695986663464,0.2492004077303365,0.24932334252101826,0.2396412376324196,1.4086785658009702,-1.6609581114553098,-1.3446152656336312,-0.6300312364421236,-1.6596332842480257,-0.47661016989398,-1.6874142252640911,-1.5965290308214133,-1.1910379473416672,-1.0454662504455512,-0.4622303625941849,2.2002466129033973,-0.306943348977928,-0.496234054322937,-0.2853331830200763,0.02657867445639456,0.14252248946959864,-0.5941585454494368,-0.8424902040435621,-1.6596332842480257,-0.5281015308544369,1.3692889596904725,1.3692889596904725,-1.3303321614751735,0.07506664386073382,0.4633208024166345,22,male,1,6,National Lampoon's VanWilder,disgust,1,2,5
6,-0.1304715687451177,-0.1301892249380383,-0.11190311436520448,-0.10165430272618096,-0.10167973648626412,-0.09231725461597652,0.03891367351622777,0.05523130032769921,0.03723132152793512,-0.10506610144633832,-0.10419867672812064,-0.09161055282767484,-0.18293808960126848,-0.18446864842954575,-0.17719014825175095,-0.10696842709798053,-0.09819037175779838,-0.08997757753963881,-0.1448056670551751,-0.14604874508861082,-0.17614440936971168,-0.13877205338229326,-0.1372025511453452,-0.14700046256521926,-0.039023169353588176,-0.050905378543808284,-0.09152584668958973,-0.1270250592194026,-0.12506576835794733,-0.12233759802156645,-0.07093239834468905,-0.07300402483002967,-0.14375561301680706,0.1660480764659402,0.1881409965011485,0.14767864478655565,-0.1724410433906387,-0.1755610219260463,-0.1960862513335908,-0.0981879950735461,-0.09838097282630694,-0.1371663687584794,-0.2435981026861836,-1.1164510390179492,0.1917187005808667,0.01751820122689189,-1.11707169128056,-0.019907670769972383,-1.2448540101906442,0.43001500032511336,-1.1139306191486482,-1.1251234416000238,-0.20427119030203736,-0.5454038567034977,1.239002460393681,-0.4678721335129608,-0.2063817083037603,2.9567614168569984,1.0286334757248703,-1.2725408505194389,-0.7472621932747412,-1.11707169128056,0.10777182259797724,1.3940806287514866,1.3940806287514866,-0.4954187901255154,0.4815045350238518,-0.8063017068609198,22,male,1,7,Wall-E,happiness,5,4,4
7,-0.12165940613966557,-0.12164975838790824,-0.1266550538085732,-0.13643955742286226,-0.13827122509240405,-0.1362157831451642,-0.3541543267349225,-0.3543543217086785,-0.35155508004303765,-0.4763083806309129,-0.4869904221101699,-0.4623198641707906,-0.3881743589324581,-0.4067157715203885,-0.34423683387985143,-0.31849500708898404,-0.3062692936663841,-0.20506226917068293,-0.25168433515926225,-0.25373311526922576,-0.26155284839416937,-0.22944032140961826,-0.2253662216412553,-0.2261502786032292,-0.2799172857883937,-0.2814466122592041,-0.2775062844911367,-0.21041959764420945,-0.2118712387966176,-0.1915478559862848,-0.30702485744572816,-0.3068845294884475,-0.29757336658375216,-0.3792337519000828,-0.3786218346230864,-0.3678853263516,-0.25642882161570296,-0.2561379503611921,-0.2518985460633744,-0.23896872525114976,-0.2416349382360381,-0.24748964453291994,1.7228585322989485,-1.0897002499257784,-1.6039557274336538,-0.4437562554994833,-1.0930471994769615,-0.2466211870963324,-0.9688581598831733,-2.388903793096481,0.07753276417799379,0.422851391979088,-0.4638042025866511,2.494122215244155,-0.44854547533082056,-0.5257602619154432,-0.26925232741794797,-0.31640389507925737,-0.4559345488288182,-1.1389922362067462,-1.1497183440582748,-1.0930471994769615,-0.3944671192437919,0.557558872638605,0.557558872638605,-0.8284869560457512,-0.09773894868040317,1.8030113962709948,22,male,1,8,Crash,anger,1,2,4
8,-0.19123270787212598,-0.189655724652743,-0.1551776160802775,-0.10094967985833604,-0.10920906815620512,-0.1332189857385538,-0.3007019922096127,-0.30074405538360244,-0.2972939268225817,3.3529311977825236,2.7398177131198325,-0.15167590750547902,1.3196864380927054,1.1016707626362157,-0.2050556889383092,-0.2970179644291634,-0.28972029620073075,-0.19604585269671126,0.8297272313492301,0.6509616340048263,-0.16521262193949446,0.5095351976556616,0.3641251514283001,-0.16719526300451246,1.1963975873162758,0.978135058393366,-0.13405364394117494,0.5259024503238469,0.4018219132081709,-0.13445154971341028,2.0399407699481547,1.6210196733323592,-0.10965441477690543,-0.3155944434677967,-0.31485073668703256,-0.30565329366913585,0.2599858728390356,0.17782370861087085,-0.20580525688092016,0.7844358413276065,0.6154275073919108,-0.16014838548494978,-0.1288868122701428,-0.9732072042188172,0.09923269563203524,-0.8501690433556446,-0.9684594839652384,-0.851277067464629,-1.0754687004898127,-0.3210033308880559,-1.3464737594439882,-1.2989667502114617,-1.1184369632555684,-0.7716689301221831,-0.3316677726679312,-0.2224815027494898,1.0393336984228114,-0.30901258319998354,-0.31201786712815244,-0.1210614469035066,0.04821670484923084,-0.9684594839652384,-0.7858494544189378,-0.19783879268017804,-0.19783879268017804,-1.0907104292143257,-0.48539413821257205,0.2707185554168701,22,male,1,9,My Girl,sadness,1,2,3
9,-0.11570826531496255,-0.10620885573380874,-0.09194241922428688,-0.08796293301053189,-0.08449752867534792,-0.08343685030981404,-0.18134127536427397,-0.17027026743086374,-0.16002866456219825,-0.3889732751395611,-0.3897083653560756,-0.3506360622177366,-0.2906076168343117,-0.28965024221181057,-0.2267168072777062,-0.21403733536097813,-0.20693544406745387,-0.14571337492991446,-0.1921948388266075,-0.18933920380138344,-0.19534259316679609,-0.17730956800832065,-0.17025508115334848,-0.16924396927952026,-0.14199296671670808,-0.1407897112507185,-0.12426309142789828,0.6098781668112535,0.5993610412958679,0.10992681428984076,-0.18661941233574944,-0.17776189165923506,-0.17602148282027272,-0.22221281141569,-0.2115520606563255,-0.20115084705555444,-0.2140780127296036,-0.21360040325327748,-0.2089314983395335,-0.2368702799605301,-0.2369419279178849,-0.24088837181218836,0.784773804618297,0.023978930908163932,-0.7968786349137572,-0.06151967604970038,0.0338162083708797,0.03892016915341925,0.20110407005291908,-0.7579191531586759,-1.3951455788583549,-1.3188933933597065,-0.3619959269461741,-0.4499892427423151,-0.4372244610426364,-0.4947890895190317,-0.3163462720386522,-0.31486889734925005,-0.2778360528384592,0.25408117801269553,-1.3552675187980308,0.0338162083708797,-0.10882313191266864,-0.22177687589104905,-0.22177687589104905,0.09199738886566552,-0.23580306513668026,-1.1494510580646573,22,male,1,10,The Fly,disgust,5,3,4
10,-0.060754260015225575,-0.06233261680456272,-0.06696611546952745,-0.12193382305496353,-0.12153543698231133,-0.11419217235466772,-0.08006302237286203,-0.07719209984230695,-0.07316843097793818,-0.13338530164602175,-0.13493863174508602,-0.2764860844322225,-0.31578223945895983,-0.3218201580376922,-0.23469682361282546,-0.1562731769518271,-0.1524416110610654,-0.11851502916433207,-0.1063434473352324,-0.09887868360479472,-0.10504535436511127,0.051403791575270134,0.043662410861628455,0.03361527026516755,-0.16701757079078325,-0.1663122641046891,-0.12045218510318507,-0.1883120703216257,-0.18293215422182135,-0.13707635879650742,-0.045727012666126735,-0.04788136388470405,-0.06345262966553185,-0.08463325396928659,-0.0843223108689427,-0.08468459731726187,-0.22289303026858803,-0.2224628291672513,-0.21792582959034176,-0.12336219568632865,-0.12357039095538686,-0.1296648956518892,-0.7783328245680479,0.517929944184339,0.7483142906138538,-0.07187089178851401,0.5247918801423189,-0.17652876359139286,0.4324929082920283,0.7574115389177761,-1.043626878588488,-1.0826630198366494,-0.11301572523506595,-1.014383617442391,-0.2227030157459813,0.22065791111804745,-0.29122832328847154,-0.325521321627974,-0.2753807943644937,0.5580308860683828,0.8270658166305129,0.5247918801423189,-0.1464458239601319,-0.5362848868197853,-0.5362848868197853,0.29986786116597913,-0.3630282510276485,-1.4367372637965,22,male,1,11,Pride and Prejudice,calmness,4,2,3
11,-0.15983224784342398,-0.1587682563911892,-0.13093599181043195,-0.09317107793004337,-0.09338563831627253,-0.09215043541213644,-0.2205089228397109,-0.2311323257498201,-0.2285485459801809,-0.0362515524840058,-0.037528420036376894,-0.08907179116196562,0.04070363352986612,0.04227087387086996,-0.13985224572332164,-0.04894523027134536,-0.05235400664824024,-0.0793258924359411,-0.1472044774306209,-0.14835714188029242,-0.15693499750353904,-0.14154753258977,-0.14118927590036146,-0.16911972163156286,-0.1028318743739222,-0.10127522683186474,-0.08956854998158552,1.8260505758676155,1.6492010122061078,0.4661154947562043,-0.15448149529054833,-0.15443507767176698,-0.15942176878284606,-0.08133423092545834,-0.10255734643875196,-0.1113233029448325,-0.21525851547617889,-0.2147919028584856,-0.21016194366759555,-0.17425693959731198,-0.1742687459565438,-0.17879935993182944,-1.7328053019415723,0.939156514588582,1.8170287108053813,0.7333048014943588,0.9392238641267638,0.4190344875654781,0.6535725659574844,1.940465440085454,-0.4556319630619137,-0.6433106826520203,0.9999459764394772,-0.06202543005166114,0.6792110127232855,-0.1107426655362476,-0.2573819546381463,0.15191887066838589,0.3620672091881429,-0.5648529078822064,0.3159800346599086,0.9392238641267638,0.6214488539557732,-0.1367565602489922,-0.1367565602489922,1.125843150092371,0.08017622351645337,-0.2462884347769821,22,male,1,12,Modern Times,amusement,4,3,4
12,-0.0698932219267846,-0.0706979242961924,-0.07086624254755876,-0.06448248882023283,-0.06532212648688895,-0.07027749954433107,0.06631159259911758,0.06665814081130271,0.07127693275018046,-0.18579855804286666,-0.18381937253425795,-0.1841279398569482,-0.19650601414150112,-0.1988151735599953,-0.17114013323223526,-0.17165681829990856,-0.16863358360730826,-0.12921025084463822,-0.01830435538419334,-0.01901589813963373,-0.026854394319344888,-0.2122997939607638,-0.2088747314856392,-0.20838380896315467,-0.13400611759205838,-0.13163052584862084,-0.1211427868483153,-0.1444144750504011,-0.14237810684398838,-0.1202692468279648,-0.15486262551545754,-0.15481294180134433,-0.15974880633615576,-0.07040313512142027,-0.0701316246800249,-0.0712237898205263,-0.1931010336175704,-0.1925434413211878,-0.18773386727222272,-0.1673757266361655,-0.1675135902528868,-0.17269851147295706,-0.15354731522137607,0.15228476249950307,0.11136836422371912,0.8045245812176444,0.1469483584228005,0.7557727377793838,0.16300166995603266,0.3385672952464953,1.6879929820364892,1.558127616133522,0.9194993412371132,1.4223685185624595,-0.23639945179528005,-0.04904427499854115,-0.3128851145460347,-0.2966014618978688,-0.2769787149341937,-0.08000668849903271,0.4371401521439807,0.1469483584228005,0.8082046440778599,0.6291718153654743,0.6291718153654743,0.7916231306322667,0.5374257170114161,-0.7351601931608748,22,male,1,13,Remember the Titans,happiness,4,3,2
13,-0.2125622735280217,-0.2105192933584024,-0.16657411247131673,-0.10984531780702557,-0.10970840246707203,-0.10495796563934,-0.04798922985648452,-0.04824489844487661,-0.04217423337370817,-0.08699302366044101,-0.08789750373604069,-0.15331764502166706,-0.2450387437722369,-0.26295560765969195,-0.2517711962561922,-0.18122309727527267,-0.17491234018653093,-0.1372847032926138,-0.12428835428423272,-0.12544351156111072,-0.13425097265298802,-0.17438709497011584,-0.17141125740845475,-0.1716926913969103,-0.14359303517443914,-0.14152170974251602,-0.13555010995798342,-0.17433044272366427,-0.17211178133887375,-0.14621836542028233,-0.17216689515035555,-0.1717937291723903,-0.17519871817484145,-0.1539736182821905,-0.15353018597773038,-0.15084374434643086,-0.2320006158233811,-0.2316045943282329,-0.2271273697619975,-0.1230018180263976,-0.12324874381972152,-0.1295195819512356,-1.3649968673785304,-0.6933061559786245,1.3891447198796028,-0.8661029921853458,-0.6932406892726087,-0.977271865836553,-0.9463707181647724,1.6927047001848694,-1.1587395970379053,-1.2509300940128103,-0.10482952768996982,-1.1663421107632583,-0.35249433123967816,0.1163281093153046,-0.2988471072892863,-0.35697471317361323,-0.33483923002892824,1.3525747486003503,0.745873764287446,-0.6932406892726087,-0.8348295813929573,-0.5210369734975875,-0.5210369734975875,-1.0482192841349989,-0.5840479813538874,0.3786272036984572,22,male,1,14,Gentlemans Agreement,anger,3,1,2
14,-0.15007358664789705,-0.14920768276243748,-0.12439208294072387,-0.10244983934469704,-0.10247031676874567,-0.09926729326511724,-0.036221262338904915,-0.038491557853304985,-0.09078519154868246,-0.019855707161579233,0.015859595731692808,0.4764783381522406,-0.3071520347495066,-0.31541327920702866,-0.2538438373620809,-0.1500430750874767,-0.14649095820780353,-0.08876209096452548,-0.1244635626418854,-0.12571012414467456,-0.13492365707193196,-0.15578229007554995,-0.15315919608324216,-0.15500643110925244,-0.1518124101677091,-0.1513906062514027,-0.12470906002489528,-0.13111428706860592,-0.13653947932794858,-0.13363854006719486,-0.13806294701677066,-0.13836360987952812,-0.14503375543988095,-0.13666752419226988,-0.13632613341692562,-0.13472057917945288,-0.20721166860834148,-0.20672118195026865,-0.2020747198170139,-0.15812420802756993,-0.15829201413318927,-0.16373522709992766,0.09130515103422686,2.363878615783383,-0.13587204166776234,0.8272748928413962,2.355453085302963,0.8217405695023489,2.6798763364284865,-0.18842778813839545,-0.12967825889920753,-0.11440586348338165,2.309617189152067,0.9223920785071146,-0.17431083645213122,1.0193062084600897,1.802507355521601,-0.3529399342274093,-0.3787049682811653,0.4031709007203545,1.994619223711444,2.355453085302963,0.5257576892668191,-0.824675064694239,-0.824675064694239,1.7786267044248347,-0.272320610462909,0.8637272167549352,22,male,1,15,Psycho,fear,2,5,5
15,-0.16632380796319926,-0.1648651036799383,-0.1349758604029808,-0.12312378749322578,-0.12269774079475375,-0.11509681942590863,0.9841809126732928,1.075729648150494,2.139148821069917,-0.17669864780176872,-0.15231030610406016,0.14938398538398914,-0.13663510380513402,-0.13578308946296547,-0.09605991577457654,-0.15318460310038987,-0.15036869488631532,-0.1044888608782201,-0.17128704426108252,-0.17251190218706589,-0.1811870317000286,-0.1831325614090696,-0.17891404001915842,-0.16898716110111378,-0.14111123313243018,-0.14066033588629154,-0.14648649589113522,-0.1756939354607803,-0.1734753950421598,-0.14744658165285768,-0.2101862541446772,-0.20903775848832387,-0.20866990403613375,-0.13341982893435886,-0.1330251581341929,-0.13147005025457725,-0.21024126942379345,-0.20975330830870004,-0.20507552132496026,-0.18672021521434,-0.18684911420916506,-0.19173175757519634,-0.15744347123241054,-0.2630063309458365,0.102826057213425,-0.5704277120131136,-0.2615407588107695,-0.5796138429811017,-0.29309740534236783,0.4657497156415821,-0.3174124213052906,-0.37168165720138535,-0.4571341166319411,0.02089786542440335,-0.1563957166560855,-0.30704460782008314,-0.3235866616166125,-0.1399243782471928,0.22838754149750254,0.2481148052238636,-0.1460856058637625,-0.2615407588107695,-0.5703506785970793,-0.5183818432492515,-0.5183818432492515,-0.5055763701577918,-0.495647212639651,2.064056095631151,22,male,1,16,The Bourne Identitiy,excitement,3,2,2
16,-0.12347989722045592,-0.12315882061965515,-0.1066115110954872,-0.0842692011438507,-0.08467490896918617,-0.08534478247674497,-0.0258314769411321,-0.02546654366383511,-0.020406658232896214,0.0013389483330906587,0.038283626156368,0.12930540690407785,-0.2008061385777604,-0.2033593176831775,-0.1554203727834814,-0.1445197149102851,-0.1423326238503573,-0.0827415188178344,-0.10984528018714954,-0.11120466993572277,-0.12100583752684838,-0.17072864295911014,-0.1626330613271839,-0.1442131212099997,-0.1522679486781186,-0.15164818404547126,-0.13445306581654856,-0.1817394037887396,-0.17948583948784252,-0.15272226341345904,-0.163537207806538,-0.1632960584069746,-0.1673588826109887,-0.18241907311075728,-0.18200858758369315,-0.17873372425692466,-0.21372559214420173,-0.2132472523313488,-0.20856718238431024,-0.1352391779655829,-0.13544640265717314,-0.14137500408149262,0.5222079897599767,-1.2038905612448445,-0.5438711620984732,0.5889680906178296,-1.2059755959780751,0.6570015413636877,-1.2502841026738036,-0.12634734642785167,0.16235266011792848,0.16327370399875585,-0.35734964400811564,-0.3571364361284342,-0.21572356099579545,-0.5076749156519699,-0.3124735176903989,0.3659007453644681,0.12856684762663864,-1.0361401628146942,-1.0014233783388706,-1.2059755959780751,0.7260282667470307,2.5922021466367813,2.5922021466367813,-0.1848933689454978,1.4554221008286905,-0.4495246883110854,22,male,1,17,The Shawshank Redemption,sadness,1,2,5
17,-0.1636162952258507,-0.16281592237034118,-0.1347487148094256,-0.10711951457623516,-0.10703955334205152,-0.1028609292746736,-0.1187736427015863,-0.11872747025493023,-0.11517752404917722,-0.19302384589657576,-0.2187650234777493,-0.32755449341152226,-0.2684463393510059,-0.2746101893344765,-0.21790265086699648,-0.12235155531433285,-0.1210956511671004,-0.08534682501899195,-0.2255768965879557,-0.2267208039717565,-0.2345258212235597,-0.1753950798603344,-0.17208045687233942,-0.1731361498265268,-0.1625531363556462,-0.16207530882882248,-0.1126628548623912,-0.1615445353039282,-0.15940260762017727,-0.13513137170581346,-0.21014043711994326,-0.20899043651294766,-0.20863006735502154,-0.2384682187420805,-0.2379927549132989,-0.232581611898827,-0.24351771353342835,-0.24316668014717696,-0.2387833393192827,-0.1752056579075727,-0.17549125656701572,-0.18122755443693925,-1.343282110523282,-0.2756475423636203,1.362309554868156,-0.13052803119052542,-0.27733288438896936,-0.3031052341259757,-0.5102878101606473,1.5892822529235036,-0.9733231380283276,-1.0775852435404762,0.32844182737593114,-0.7830507356920036,-0.3566213488001341,0.9139071680813408,0.6885442779710351,-0.3773859311726806,-0.4155400639202169,1.8978079639157648,1.7494352090283583,-0.27733288438896936,-0.13410504274517812,-0.0023089981024418827,-0.0023089981024418827,-0.1141040462427214,-0.16724742665504755,-0.8535320413489658,22,male,1,18,The Departed,surprise,3,5,5
18,-0.16541573502735687,-0.16440431330705474,-0.13525697655164828,-0.12058495625687025,-0.12021338493055785,-0.11314246534824607,0.00760487942690951,0.007862210949302164,0.012596372675185432,0.07702200385187759,0.08027317334510642,0.08813059103769594,-0.2181594872068069,-0.22164375110211487,-0.17147507820445024,0.4427728113104351,0.4163051934841664,0.22706702873911205,-0.023525673916652803,-0.024994291142751576,-0.036117961602927975,-0.16166016487959525,-0.1590100533703256,-0.16058773125582648,-0.1436462373457355,-0.13178085643283807,-0.040920366411374684,-0.1829245078753908,-0.1806543854293526,-0.15368915297461802,0.029045236481697337,0.025472279464842627,0.0028886891868173674,-0.06365780420216642,-0.06332667822911157,-0.06406688584481803,-0.2534270604541127,-0.2531195906418344,-0.2488323971847215,-0.15772403183865888,-0.15787352577027813,-0.16317624146714735,0.09937232211419687,-0.4710733769646635,-0.1578430696591944,-0.7385922011346078,-0.4720491582490683,-0.7173369396800575,-0.4799767366245114,0.1202260523919953,-0.6761300563843786,-0.6802882713862491,-0.4013722063562632,0.27572733243605874,-0.4142980187498071,-0.4012911363271128,-0.3198746074989113,-0.32739013576451303,-0.22869215560168074,1.0535389435811249,-0.4249003999345834,-0.4720491582490683,-0.7274137211460723,-0.5542500489012129,-0.5542500489012129,-0.6902773139819743,-0.5572280293435814,0.6237495546298274,30,female,2,1,Searching for Bobby Fischer,calmness,3,2,2
19,-0.15703180777942652,-0.15622248871800953,-0.12981045484762593,-0.12851976587324074,-0.12797786104875425,-0.11922520285038707,-0.0882106238633459,-0.08809766903363879,-0.0842656954624386,-0.14341327187166975,-0.14292846923655975,-0.13488365781273645,-0.026078727299886445,-0.01935242709126376,0.0058527876393211975,1.303373705602133,1.2328184493451793,0.7146724176180068,0.4730210762245219,0.470674734143633,0.450651555164009,-0.17622953335077554,-0.17287539675909222,-0.17391358182331745,-0.1555805084535277,-0.15466561083814429,-0.13953931281420925,-0.16617441041253267,-0.16400863866342874,-0.13915379529490313,-0.21394756967850675,-0.21271056875782526,-0.21191112068206644,-0.1624964722315407,-0.16213286853995912,-0.15976474690714745,-0.2421303271481881,-0.2417776048100649,-0.23739368052076984,-0.2002365535548554,-0.20036571343158766,-0.2050574802434373,-0.03944221775740514,-0.8202715464014944,0.016048183241615922,-0.8571906713980599,-0.8143758130559106,-0.8504409850202376,-0.8950646298555638,0.03211220836208141,-0.6008046200699212,-0.5986214302030146,-1.188945072260085,-0.9751937896334696,0.06745876827850697,-0.3916252597577018,-0.3045488974777724,0.23646782672028455,0.6212240874796312,-0.441876920101412,-0.4001339770346442,-0.8143758130559106,-0.8161715366532186,-0.3915267968474684,-0.3915267968474684,-0.9664326740649836,-0.5454381167277804,-0.5061758584560887,30,female,2,2,D.O.A.,surprise,2,4,3
20,-0.18817988284242326,-0.1866733566976088,-0.1504074902255169,-0.0921573675698241,-0.0923956595290849,-0.09138982540956762,-0.07436105617571831,-0.07419861124714859,-0.0702479633935572,-0.1467348875060457,-0.14624462522968504,-0.13763476091451393,-0.20069404621409867,-0.20319662574794975,-0.15500347996233824,-0.13284753188220366,-0.1298730835960857,-0.09951658067606016,-0.14511075057019399,-0.1463917037597004,-0.15560812664754178,-0.17082814736074498,-0.16772089225458456,-0.16889802882130772,-0.15529983545401504,-0.15434098844493188,-0.1389704684052448,-0.1671233377831657,-0.16493504977060391,-0.13989484054984558,0.1368807074887593,0.1310676322790305,0.09761820391048208,-0.03191321983218507,-0.0316322002795021,-0.034013520974961985,-0.22652507961145055,-0.2261103668700916,-0.22160907097431892,-0.06396625721028898,-0.06425045212469715,-0.07160464661580106,-0.6596611856172426,1.7314812499106098,0.6315951674348695,1.102220048424999,1.7271549397326282,0.9494496578019072,1.7588734540253497,0.03655060100199787,1.0654853204997792,1.0168424404562544,1.3450722222225089,0.5529563536368473,1.2978394551333734,0.14386285541785962,1.0431903101290618,0.15126720692478987,0.35442676986004884,-0.5729991700207641,0.4747501513774178,1.7271549397326282,0.9108488248743905,-0.32861040722353724,-0.32861040722353724,1.3548080718731317,0.0939773038696592,0.1701818610800413,30,female,2,3,The Hangover,amusement,5,5,4
21,-0.20179322712938447,-0.1999861787903603,-0.1594101581281823,-0.1364782174249824,-0.13576191674447274,-0.1253063524114529,-0.13890044500361493,-0.13884101546096733,-0.13511622652116634,-0.21971862078290064,-0.21957737759064505,-0.2017200126372992,-0.3740542595488899,-0.3858535465554897,-0.315533943923403,-0.2878015749196209,-0.2769166882368007,-0.18753527380296264,-0.14446761076376033,-0.14574301706732148,-0.15489372220998154,-0.17558415537624933,-0.1722541872707126,-0.1732727847559949,-0.19071794322807567,-0.1904813202148188,-0.17845102818688366,-0.1906156091480176,-0.1883108944063548,-0.16045449389877944,-0.3215109772562026,-0.318107861089104,-0.3068126875595216,-0.2459047526192325,-0.24543988163250316,-0.23981091012785435,-0.2431852267774094,-0.2428339345470039,-0.2384519008761074,-0.20601316507843231,-0.2061266065404096,-0.21067104853774893,-0.4104570779960611,0.0735964226560577,0.3631731860759817,-0.2531756669466611,0.0750696322579801,-0.30241332272817784,0.02875873830306273,0.7479626723644912,0.18367555414418826,0.06699121616949004,-0.8932674319060326,0.3749171505241912,-0.4559113750058118,-0.15306393337660304,-0.2416050089633362,-0.3877389349460476,-0.4791514598498367,1.2888270496908014,0.16714640167372574,0.0750696322579801,-0.2880209709737304,-0.4378269522777721,-0.4378269522777721,-0.036580277757069735,-0.37523219944877706,-0.07046299334482818,30,female,2,4,The Ring,fear,1,5,4
22,-0.1868376386908424,-0.1853639442282104,-0.14951405484586267,0.4262399608303726,0.4147145140567685,0.3045329627768675,0.018145463559535047,-0.004983095866619941,-0.14371723705063225,0.2191939911446708,0.17535341350020345,-0.07536460053156831,0.14613546319860812,0.1621716997399792,0.16558151322092696,1.3933904488088542,1.3179963000561674,0.7652275850842882,-0.1713750192343953,-0.1726121350771287,-0.1813057147203068,-0.17855237930250087,-0.17871564152293914,-0.19759463509591035,-0.15387448630057174,-0.1616468696733666,-0.20922934028425996,-0.01907859753883066,-0.017806299627104588,-0.011276227017696256,0.007760448906518625,0.004503336584273485,-0.01647493331694465,-0.06462164011454334,-0.08422964435532912,-0.13639611438848545,-0.2534415518583969,-0.2531342184569769,-0.24884687213630285,-0.1911727341895683,-0.19130176112318253,-0.19610094901862526,-0.06867604808863315,-0.03717435669533865,0.01915871902273801,-0.4760491909361663,-0.03482506760156981,-0.4785535152097724,-0.028605990345487976,0.3146379595567911,-0.9733231380283276,-0.982621544078766,-0.24046082153180875,-1.3371728675270511,-0.3382922518863741,-0.4406906180667551,-0.26613589595117754,-0.18828425769178547,-0.04436521645033517,-0.1535372630110641,-0.5142161740202636,-0.03482506760156981,-0.4788612772778103,-0.5666182181405194,-0.5666182181405194,-0.24304519864925184,-0.4799458121922875,0.4937274756125438,30,female,2,5,300,excitement,2,2,2
23,-0.2393247708809179,-0.2366904332016135,-0.1842998304435593,-0.1471581977685842,-0.1462125369499028,-0.13347200369822138,-0.2947818496525602,-0.2949779525457277,-0.2922362022751065,-0.4703642691064052,-0.471531436403605,-0.4223351850769277,-0.4094900539635135,-0.4241067471019607,-0.3502534521930465,-0.3122304603824666,-0.3000955858293925,-0.2013764818157523,-0.2177278073841625,-0.2188871264082489,-0.22682892045334385,-0.22404718729779868,-0.21836537973574816,-0.21748375333304287,-0.2787498810029483,-0.2790422324723957,-0.2629008749615987,-0.2288284980168348,-0.2262873957897723,-0.19363931260254252,-0.3107112155146381,-0.3075286711892327,-0.2972995929495105,-0.34091950100942425,-0.3403442934730572,-0.3310299082767088,-0.2453107469553453,-0.24496847718506295,-0.24060688063209626,-0.2328501159561988,-0.2329342995090841,-0.23698782596985274,-2.6025043303259587,7.1553878291073385,2.911737935610361,2.15034875204605,7.157572512414641,1.4738463321999995,6.435139111544112,2.4795957690636854,1.5410694446920628,1.0370261496385391,4.2412118544419295,-0.880354405186891,-0.3784136018504475,1.6574906798834426,6.848610753555829,-0.385119566665066,-0.4671389284615262,1.2922313691534697,1.4270004217074057,7.157572512414641,1.6613046333634962,-1.285008706951517,-1.285008706951517,3.250028452983622,-0.24106847584794394,0.6450038767749282,30,female,2,6,National Lampoon's VanWilder,disgust,2,3,3
24,-0.2296330486472468,-0.2272181537492302,-0.1778967546621837,0.04178481479123655,0.038635194729712635,0.010961519153126724,-0.17790189824721986,-0.1779566264166916,-0.1747215395838795,-0.29143167651127844,-0.291731405110037,-0.2650407156795764,-0.2776835154036735,-0.2843616602214581,-0.2265547175136545,0.7285686616010494,0.6872983488112415,0.388597987000348,-0.20875276666819975,-0.2099250862523117,-0.21800165466125326,-0.1990189006278002,-0.19456702424790895,-0.19473164033712428,-0.19420267789837686,-0.19408015272061754,-0.1826028013201492,-0.02523366236086437,-0.02395042787691301,-0.016750538573996297,-0.005343199468384722,-0.008376543746853295,-0.028201753980883863,17.79173585754106,17.767775140847327,17.073779081440822,-0.1850785422427309,-0.1844805636870729,-0.17952555895029962,-0.18365692308251105,-0.1838017997552406,-0.18879783263722866,-0.2374004958149593,0.36021532303195514,0.18708168953522247,0.18262893646321451,0.3597834600045897,0.1405642128265135,0.3764633503104363,0.19070145555253126,0.048975950232985455,0.010218656370948771,-0.13754468596386074,0.26489812897078,-0.15942352002781107,-0.4717954601484686,-0.2544859046912112,0.23329365427506604,0.10314322001528543,-0.9510039094201732,-0.7273517314854725,0.3597834600045897,0.12802983314279912,-0.21172972993671726,-0.21172972993671726,0.42507795924208025,-0.1423811895414656,-0.055533446366381814,30,female,2,7,Wall-E,happiness,4,2,2
25,-0.22252725352425376,-0.2202653509523452,-0.17317432504710153,-0.04634120927459759,-0.0476105198200956,-0.056546674727746216,-0.29551699468990633,-0.2957235958263423,-0.2930311250639865,-0.4100498097751754,-0.4109236352362065,-0.36931562034536936,-0.3949013437317279,-0.4097745329856589,-0.33682688856957843,0.032277201529878966,0.02666830413610475,-0.006328034272130017,-0.2149799542448441,-0.2161389740191056,-0.2240948731634116,-0.2027527813830458,-0.19810659527054286,-0.1980574918105248,-0.2616482728942428,-0.26280447754029423,-0.2571306384809244,-0.21313106373620247,-0.2106853605667324,-0.17999146953503548,-0.1543780859234487,-0.15435584061906266,-0.15940963171342926,-0.3225474896215997,-0.32197956169780056,-0.31331868904823085,-0.24673206964207375,-0.2463947696259985,-0.2420376459106501,-0.2276972413202244,-0.2277810138780135,-0.23190278809948656,-1.2307250879830771,1.1866643980619365,1.2476531137309452,0.19311007133718291,1.1857338643513422,0.007204227662945838,1.0301047622831712,1.168585056274585,-0.3597632263945917,-0.48420773469442896,0.9833678591476809,1.8134164303929656,10.605614764985344,-0.3844567638468592,-0.1423384752507492,12.171581069623606,14.330325512409383,-0.8223192242145965,-0.3382351043014937,1.1857338643513422,0.07876611063115117,-0.6988207459404553,-0.6988207459404553,0.6960672741989408,-0.3504502832337157,1.2865321526698543,30,female,2,8,Crash,anger,2,5,4
26,-0.19582145639487947,-0.19415682041004853,-0.15549583735511274,-0.12373124275689228,-0.12329375683162025,-0.1155651810134056,-0.12115711351062823,-0.12107508646731925,-0.11727599772897175,-0.11970947808122152,-0.1190758622926661,-0.11375031877792938,-0.11541237515364088,-0.11341846857334698,-0.07649020163979148,-0.2137757142356728,-0.20667386457006315,-0.1455093958859743,-0.12009975374608332,-0.12144342523826199,-0.13113565092053248,-0.1807508966110241,-0.17717824770740606,-0.17802539519936286,-0.18449962194094974,-0.1841467769425083,-0.17157853379720267,-0.1770610923795315,-0.17483398928596305,-0.14863427744748395,-0.0022865109667364407,-0.005245932445804002,-0.02484115767378576,0.42640886596265065,0.4260320541635008,0.4057733925644346,0.1081474939729314,0.10994414439940416,0.11743063446614628,-0.17739930997958436,-0.177563907722719,-0.18274975373437236,-0.785979574117572,0.7549139740574339,0.7534286866331809,0.51595928118917,0.7568825502085884,0.3760273051403494,0.6842858661560555,0.9656762290883056,0.10040670859617667,-0.037290309206667316,0.6725281732613297,-0.8214708140930013,0.6187134982739252,-0.4163017363525315,-0.3054139995130133,1.075913606521174,1.5405942353088726,-0.6896222439191055,-0.4428514775228679,0.7568825502085884,0.4253932818860244,-0.1932734548251577,-0.1932734548251577,0.7529443275499499,-0.021450857029026004,0.5273846379993221,30,female,2,9,My Girl,sadness,2,3,3
27,0.11654055616457948,0.1113262694018342,0.05157982125084535,-0.12759883038962527,-0.12707339374303447,-0.11850073149970082,0.32483398792917056,0.3727907168859145,1.2165398344779803,0.099030980226522,0.10075638315182782,0.0786292423599405,-0.3156897177641018,-0.32461285193442857,-0.25041496750828146,-0.13376996484718898,-0.1181992922821507,0.010225373728125757,-0.2279984946831865,-0.2291350439219871,-0.23687442262897446,-0.2383771067835901,-0.23199726291725156,-0.2305451289047252,-0.23827060065593345,-0.23895987229391896,-0.2311531106202511,-0.18469038368244667,-0.18241882061167575,-0.15528555196413127,-0.07468576960472262,-0.07627500808060282,-0.08911803197284524,-0.18631189027433684,-0.18594309418511634,-0.182763748437536,-0.25427777829401144,-0.2539704576156191,-0.2496748664993376,-0.1399726479601134,-0.14015606104567085,-0.14591437771415133,-0.07265647071333511,0.059661368189987365,0.03634193375738185,0.39742351073543775,0.07325013001622327,0.3717020928282173,0.07529098821744441,-0.2159697735582366,0.653706273709281,0.6583236953228655,0.09116376559507887,-1.4744738048857773,-0.28855111855070936,-0.4538346173511498,-0.2960404481342218,-0.08025139249464526,0.05247831959126337,-0.4446830312825947,-0.7588158186192273,0.07325013001622327,0.3937278300121032,0.2703735879323077,0.2703735879323077,0.39445374390905297,0.16934616202990252,-0.5225553136307366,30,female,2,10,The Fly,disgust,1,4,4
28,-0.1814497996676954,-0.18008858936086494,-0.14592349600588106,-0.1044747464514886,-0.10445025637763193,-0.10083131924339726,0.1126968594471274,0.14426682013509784,0.35280718699376395,0.11885569019690295,0.13485844326570082,0.10936296751918397,0.10432539293149848,0.11057446486358016,0.1635080738438882,0.13462494163759986,0.12387697352631336,0.052017970089501236,1.1784059073170725,1.2818657714333868,1.4814523587241473,0.05416548486864374,0.06914893711194188,0.20801238811922027,-0.2489891308542698,-0.24989089193329145,-0.2430640079103314,-0.062160753932793814,-0.060559584284976375,-0.04834315064996477,0.08021930956011647,0.10327856143747316,0.17044616568842966,1.1029520832119413,1.1987303670673786,1.518757067625775,-0.2279169096074624,-0.2274973768624536,-0.22295939552654076,-0.2509205042401501,-0.25098126677535665,-0.25468851641712903,0.10135465368791656,-0.07899575236655343,-0.14133552568688987,-0.07537261204367113,-0.07427085971974684,-0.06600159093107548,-0.045064439526142974,0.19540123218117075,0.8194222310701531,0.7516479758519291,-0.5832716029003384,-0.8062228772902196,-0.35568593612812704,-0.5188768244029356,-0.2810135492726285,0.004301620400088354,0.004590600643397374,-0.7560644604696622,-1.0591447819276452,-0.07427085971974684,-0.09571706054933253,-0.12724527898467566,-0.12724527898467566,0.029466642650572993,-0.19665920740581888,0.00826543459540167,30,female,2,11,Pride and Prejudice,calmness,4,2,2
29,-0.1547610209293629,-0.15397055447103722,-0.12812223504320286,-0.11827201853804772,-0.11795456894925227,-0.11140643247850036,-0.11285380889740952,-0.11071756027230796,-0.16942766965555114,-0.1974831975098388,-0.19727761844314384,-0.18229974711588773,0.4662198516589926,0.4994975040420003,0.4623061921009831,-0.2427783709683384,-0.23895913027146526,-0.17496434064891822,-0.1835875271114909,-0.1848188210329345,-0.19338875704632108,1.947380256061657,2.009610212199733,2.1215769032658134,-0.23370785015342385,-0.234314802690143,-0.2261440111704262,-0.17847441833797734,-0.18021335533536906,-0.17101074549030745,-0.2439108778580856,-0.2420701960372862,-0.2383602648234109,-0.3079521796847428,-0.3127879560934612,-0.3074379526755806,-0.2482870586492049,-0.2479750673587404,-0.24371861078518106,-0.19111552922025865,-0.1912478240829496,-0.19608172071088212,-2.1228098461340363,2.3559589066644087,2.2952112602010954,1.5447102927193517,2.3546769001672687,1.061094713990611,1.9631905339151408,2.4011193424247543,1.3355996894615174,0.8710680738625016,1.3741274619067518,-0.7218002860997701,0.0840192629403662,0.08883256175392394,-0.2096326975476637,-0.20949895934864995,-0.048302933847619516,-0.0053783363971950686,0.4499797804967775,2.3546769001672687,1.2876004040570204,-0.35255228655139903,-0.35255228655139903,1.777164596000931,0.21624878991946775,-0.7684661910099483,30,female,2,12,Modern Times,amusement,4,3,2
30,0.14158338181128471,0.135857540992841,0.0683109093267426,-0.13744313872086314,-0.13670776134314566,-0.1260438683790547,-0.13832045424016512,-0.13148712364896367,-0.12596881778134933,-0.1891299740311339,-0.188787030116282,-0.17446475804519507,-0.09649656542800984,-0.09352054451148208,-0.0591038599421464,0.0010534498639924194,-0.0028447676780516237,-0.023656927892684587,1.6942778885977974,1.6899724801501361,1.6509506116957318,0.8616896276383569,0.814573802488115,0.7726635553345036,-0.20772830168707299,-0.20784337682870035,-0.1974335962515293,-0.1950586187578774,-0.192719011666279,-0.16427348423337382,-0.2439236345868145,-0.24209866231759455,-0.23843348323078725,-0.2373388017182421,-0.23301988610843005,-0.2041494295612579,-0.2491227074924685,-0.2487997870584075,-0.24448651132090826,-0.2319520700271567,-0.2320341828928341,-0.2360956808413836,-0.7902421683596763,0.0001727786850154642,0.7570956896122417,-0.4166448431807169,-0.0043156997426554026,-0.5019973952649585,-0.1215643185042666,0.5312590778148499,-0.12967825889920753,-0.20110208418145195,-0.26342110856388906,0.7504824217069404,-0.1778752253239661,-0.41590300511518535,-0.22965397319500885,-0.002505855887195038,0.04748364158769003,-0.6738321447005511,-0.4527878647377856,-0.0043156997426554026,-0.4355318784333773,-0.5412942064278583,-0.5412942064278583,-0.18309892283597012,-0.4580020203077858,0.06149347744392709,30,female,2,13,Remember the Titans,happiness,5,4,4
31,-0.2287289310766717,-0.2263290788998933,-0.17727983868528127,-0.10942393225716,-0.10929715870469768,-0.1046384703531038,-0.2660791098684955,-0.26622161920054793,-0.2633108589758357,0.009564505307161271,0.010952530290563705,0.0004661029646547541,-0.35894931813559794,-0.3729587591037971,-0.3042308124156524,-0.18268199010702335,-0.1771517301308677,-0.12780301152852322,3.2318695643067032,3.226435632369094,3.167217033740387,-0.03253522608390789,-0.03611282448155968,-0.042519140437554885,-0.2383609136640464,-0.23904829154612384,-0.2312259186065107,-0.12923933096539994,-0.12729015432240354,-0.1070368905070662,0.08325377725240735,0.07854082240175025,0.0505542498928217,-0.23266627712042304,-0.2321758183035936,-0.22684345882771365,-0.2324219163608084,-0.23202572342105265,-0.22753862143750425,-0.177536885316585,-0.17768219877810504,-0.18274227751121053,-1.0247339936957376,0.6207877818446857,1.00893857822677,0.14554564277572193,0.6205333721048006,-0.0059928430547288546,0.4886742810957211,1.1512526871184592,0.8123918565079501,0.5949303636673762,-0.1620910067417634,0.018118539267493013,-0.3367871777069481,1.061532162949529,-0.2830276595298747,-0.376174754780368,-0.3744936857162876,3.092704489226964,1.3577377468744094,0.6205333721048006,0.04238057800389237,-0.4501356105953187,-0.4501356105953187,0.4354222843838613,-0.26621594944656063,0.1436006256168037,30,female,2,14,Gentlemans Agreement,anger,2,3,3
32,-0.18201942342211272,-0.18051034703240687,-0.1457931885595875,-0.14196608945607864,-0.14113213047238382,-0.12949927224100574,-0.15883360179518982,-0.17234497174627025,-0.2111922463226606,-0.045050572646031316,-0.043898640951879266,-0.04731112722463197,-0.3755602146908377,-0.39058506932550907,-0.3276073201529464,-0.1825963018814719,-0.17950047875831607,-0.12917588085477552,0.060489333323814835,0.058886562772173474,0.04641514177109924,0.3768675761271268,0.3931243690940084,0.4829780228321395,-0.20517985047882525,-0.20522501347199648,-0.19447361455470386,-0.15836700058481773,-0.1621313142225468,-0.16425526510845204,-0.06743089360633556,-0.06913526320586412,-0.08256983051248712,-0.2613012520115199,-0.26893054118378223,-0.2623034900899834,-0.2511468364487802,-0.25083992926980203,-0.2465768829495717,-0.24353500100287026,-0.24360511157353956,-0.2474547731348528,-1.429275257976052,2.2291383487531307,1.4682363229073363,1.8443693174820408,2.220667246873858,1.4801155684641538,2.0548620824041044,1.201995853116646,1.2924659675816377,1.0270801779252252,1.771717799177681,-0.4275045102187519,0.12177683690707218,1.6746591235904744,0.8126737426319813,-0.3354617156932466,-0.3890533717638592,-0.2916879018367061,1.7525896915690886,2.220667246873858,1.62272941033585,-0.08372264143416705,-0.08372264143416705,1.8703523230526535,0.5047807562617642,0.9592964742097764,30,female,2,15,Psycho,fear,1,5,5
33,-0.20164091986997174,-0.1998360742397168,-0.15931174080420102,-0.14696708725927704,-0.146027726269417,-0.13333544121816795,-0.08822028152823902,-0.10677391069437804,-0.19432594709160686,0.0043453726908032975,0.005725004430412028,-0.0040185794303183725,-0.10140995179542417,-0.10064533814974316,-0.22880290343901144,-0.09480145250789744,-0.09382537786126667,-0.11486121156319787,-0.2381203975324971,-0.2392429590959601,-0.24682362342014155,2.2187315650222748,2.2740513085899785,2.3747386352933617,-0.19005164416418885,-0.19778639331806566,-0.2004650985088361,0.25605082489513675,0.22051508190650654,-0.049999797953944124,0.236639614746412,0.2287065715326457,0.1850267720460946,-0.2740476522503086,-0.28107830839429354,-0.28268324047376026,-0.2547440354107654,-0.2544403786550733,-0.25015726488899764,-0.22943257036372824,-0.22956024415977666,-0.2338551136368449,-1.4698258919587694,-1.0254990401721058,1.4558802057193705,-0.6926404629732994,-1.0237686628420093,-0.8248542875804119,-1.2975752676129233,1.5738856462345363,-0.4817377566282594,-0.6336418831181407,-1.1328780705035748,1.2094924260769837,-0.09029628524161436,-0.4204759112791179,-0.28076745464529745,0.1300917513029936,0.2349469250224827,-0.6746668159012985,-0.4506098524879173,-1.0237686628420093,-0.6178386260320237,0.11860700533678165,0.11860700533678165,-0.8176032131485982,-0.3323914469161611,1.7905604759744431,30,female,2,16,The Bourne Identitiy,excitement,2,5,5
34,-0.2613862817745942,-0.2582714663326317,-0.1989460354321216,-0.15246869557249146,-0.15140791014291405,-0.13753111532358395,-0.23629445543995944,-0.2363971002420113,-0.2333233119020504,-0.4725304580856946,-0.4736909348342637,-0.4241419871327013,-0.2739056642635871,-0.2921056094450229,-0.2991125101980319,-0.2498696874274469,-0.24209375065590685,-0.1666889774128536,1.3741573398934637,1.3706986396672052,1.337715826762993,-0.2410705949035461,-0.2345741911789326,-0.2330201971213776,-0.2336735456175156,-0.2340502840157629,-0.22158457645447716,-0.2161048979799578,-0.21479811974156235,-0.19159907608184568,-0.30700463096278746,-0.3029039204721519,-0.28699081727463416,-0.3643591374801968,-0.3637574154277642,-0.3535635945760781,-0.2602625698742825,-0.2599811588363056,-0.255743857179185,-0.2528009946561128,-0.25285985168750513,-0.2565345805113305,-1.5638855420303968,0.6055299197388123,1.6153707320661932,-0.49228389346738,0.6027362262087241,-0.6578400427389528,0.35350519189232565,1.643711960196329,-0.5825823512926142,-0.7306095110201435,-0.5112131155915824,0.8402937757975991,-0.3368202290321132,-0.4370787422629197,-0.3025019913391425,-0.19113120776427853,-0.08336411094716463,-0.25360503941409296,-0.4829600429782462,0.6027362262087241,-0.5497271157718054,-0.9714810880616104,-0.9714810880616104,-0.013366714113674995,-0.6209105620377776,1.973670309151652,30,female,2,17,The Shawshank Redemption,sadness,1,3,5
35,0.0993038765909266,0.09456066225392304,0.04047261887910512,-0.12843478297506608,-0.12788817102640246,-0.11913127864361694,-0.10613187129854017,-0.10600459464848637,-0.10218376777025784,-0.2820875887459,-0.28223323438869,-0.2562431511855397,-0.2603495604107857,-0.2675517258268862,-0.1920598857088171,-0.15398557853761918,-0.16114233049964696,-0.12132353237322045,-0.16543186450135916,-0.16667190971378232,-0.17549038968275393,-0.09148552494094593,-0.09226126057142152,-0.09667055453906534,-0.1768071067923774,-0.1759831874843873,-0.17261858916611114,-0.057546407122572224,-0.0585840129578792,-0.12074946919262118,-0.26811612375841665,-0.2657994064636756,-0.2597682751122192,-0.2279824252487249,-0.2274801521195945,-0.2222459718804637,-0.2193546968630691,-0.21889889201799412,-0.214268484531024,0.5359942154665525,0.5352078546366007,0.5176833804935622,-1.0907796536945542,1.2756874251756332,1.0836175377221873,0.4172663298026766,1.2725435811899517,0.23599161193306895,1.1610474705949705,0.9602745807862976,0.33049167609156144,0.1766943948783723,0.4660917293640259,-1.3092612027111497,-0.4199261391667552,-0.06398777743195101,-0.25564606230404163,-0.3732519769871349,-0.4277025591746124,0.8487336424851509,0.33117531601006617,1.2725435811899517,0.25221554149215714,-0.6027736018358761,-0.6027736018358761,0.8395015401614312,-0.2578358035863627,-0.09710153650027116,30,female,2,18,The Departed,surprise,3,5,4
36,1.1400602956646615,1.112502198488735,0.7309282226726467,0.2515239656622278,0.24391672783461898,0.17155807313696256,1.6495895616930831,1.5205844571800733,1.2547429259510638,4.043107850787201,4.409188387786408,10.70924885990535,0.2417987293955431,0.31742264856303803,1.3491046159161812,9.400544879983718,8.91708173211523,5.312590316120908,0.6744161068247898,0.7366755569168195,0.8225040081375345,0.6307661656162991,0.6012794145398838,0.6841257718465225,7.847202879360378,8.584737406109417,9.90454399780538,0.7248862711278666,0.7562425896384982,0.8620830920716025,0.28239598035239977,0.2346662409839648,0.17939930305464116,2.347328476210803,2.34546542508968,2.2537817154514226,0.9932323640291504,0.9990151854315474,1.0152657225686443,0.3425610353108075,0.3419346852318009,0.3273794954712772,0.8105452494348954,-0.3690779835036455,-0.8133906875430612,5.443705323258407,-0.3725085877579569,5.656640387221737,-0.24998775187803846,-0.4080421411449199,5.14310224008693,5.142231529059549,1.451133671794813,-0.8122955218709279,0.745826799151265,-0.41590882138568575,-0.2915605603406822,1.2440743782392565,-0.26502675790161834,-1.4659071550551046,-0.504471321319613,-0.3725085877579569,5.79267128793138,7.181280266701531,7.181280266701531,2.1978350793139647,11.414208715190432,-1.7079654035787706,27,male,3,1,Searching for Bobby Fischer,calmness,3,4,2
37,-0.10044983313119757,-0.10081136802181366,-0.092001015857903,-0.0850222131215307,-0.08540349153879312,-0.0859192597035293,-0.0997672203013565,-0.09785887039157956,-0.17029390599970176,-0.21357304647049555,-0.2160254578664255,-0.2889562113637754,-0.258143225729197,-0.264249495600042,-0.2237841376702746,-0.16653812810684873,-0.16186159266416367,-0.10563397941024248,-0.20053429686000407,-0.2017168579973541,-0.2164888905943204,-0.1799776243703153,-0.17579191928033153,-0.17554898942363276,-0.19042295431511785,-0.18919853511657425,-0.12418585939137045,-0.17440803106726113,-0.1691865488917799,-0.14368958951214392,-0.21466666791876807,-0.2099133418282006,-0.2015080155158868,-0.29433329463552804,-0.293815392376026,-0.2863661996616071,-0.16288916287368585,-0.16216931494270204,-0.15694625474933233,-0.14709454345671272,-0.14726074801737585,-0.15285907996535486,0.5887353266353269,-0.14325959824841974,-0.6151780076112837,-0.9444575911439516,-0.1444956248155199,-0.8781571698630799,-0.027539808397475385,-0.8309457353926941,-0.6268261335127574,-0.5350808280837608,-1.089194077689921,-1.7693359286016548,-0.44906132703331697,-0.5438626932269636,-0.3050239708377101,-0.2827087754881126,-0.28767755824232993,-0.3242486425168715,-1.6042335749006735,-0.1444956248155199,-1.0573656256617672,-1.1367886581813615,-1.1367886581813615,-0.9361952403714195,-0.7889544125443109,-0.2923511018292682,27,male,3,2,D.O.A.,surprise,4,5,3
38,-0.2778623900286092,-0.2743826803976244,-0.20986259526477571,-0.15235147167784868,-0.1512932866754953,-0.13744174271035384,-0.2736239246133678,-0.279702673753151,-0.32622839413406896,-0.43421221179906505,-0.4418562915733275,-0.4448306320789052,-0.2907262839373029,-0.30746305711238364,-0.3061194397330637,-0.1878585025464302,-0.19029173579312827,-0.17631476832792528,-0.2422136558048245,-0.2444342050324635,-0.2607929753493399,-0.22921382144212166,-0.22401423238119164,-0.2284898140470705,-0.2667995896406771,-0.2698511065466393,-0.2781368899447639,-0.17328470069677768,-0.17484045534264314,-0.17543790585046012,-0.21423045533296395,-0.21998148812494012,-0.2706926413384616,-0.3756833303236364,-0.3761625626650715,-0.3674210373515802,-0.2447363668712014,-0.24439528337762084,-0.2400420399823688,-0.2511315700453043,-0.2511931864828112,-0.2549026835124901,-0.16852965579818008,-0.5740908494918935,0.12549343491301582,-0.7603279674917541,-0.5797741625394693,-0.7664405332130421,-0.6395121680477841,-0.01805178120639166,-0.5515006997292349,-0.5456705792320397,-0.8289093541337126,1.984517681988032,-0.36428131040776457,-0.4183924153811737,-0.13453147560020126,-0.2519052806005749,-0.2840000845788205,-0.5754951093291734,-0.5789169824307294,-0.5797741625394693,-0.7845675668434706,-0.5449104253832808,-0.5449104253832808,-0.8540964580093163,-0.5734926884251614,1.2364244461731937,27,male,3,3,The Hangover,amusement,5,5,4
39,-0.09546381581225258,-0.09624008137436564,-0.08984297641769287,-0.07220350476992811,-0.07298481098227255,-0.07661959585260537,0.0038419999855364663,0.003375327589541939,-0.10836744663807783,-0.06841132869835087,-0.06745747479339946,-0.08350492064094138,-0.26843272703908394,-0.2758803017227665,-0.19014632208403004,0.0017752910924641555,0.0007327746706204725,-0.10685569556959497,-0.14678256714879426,-0.14805200699941232,-0.2081679458460368,-0.14394116188404146,-0.14234235752525856,-0.1613299175732229,-0.1371725412823542,-0.14701456440804855,-0.15641529786217168,-0.16993870297853975,-0.172022482137179,-0.14702438793370728,-0.1061231289672792,-0.10713413534712736,-0.18175073866688526,-0.12766757209292212,-0.12731116318138666,-0.12599126085275894,-0.2256299937181484,-0.22520290534210285,-0.2206635394510607,-0.1342100270390882,-0.1344160130832758,-0.14035283836543322,0.21262308575653185,0.39856733069589895,-0.2583857402854102,0.22698529078973995,0.3916742984741759,0.2492640008316168,0.513311600606603,-0.2468372900781296,0.37650866908445135,0.3908003477838429,-0.03594855991505646,0.335681229133666,-0.3670716166113261,-0.2796563499084921,-0.3276567944992641,-0.3191600889956638,-0.2877957031422369,0.2755128373277755,-0.05271633106614297,0.3916742984741759,0.12139001160948465,-0.2390001967942123,-0.2390001967942123,0.4665190168878721,-0.15569369443345146,-1.723521586914221,27,male,3,4,The Ring,fear,2,5,5
40,-0.08547235565052977,-0.08624073537138206,-0.08238242075310714,-0.0905368227449942,-0.09135489401934667,-0.09053901359778012,-0.025097631866125496,-0.020102337703889386,0.02215428868432565,0.10795887897884522,0.11078028836117687,0.06446710285502663,-0.17349562521847942,-0.17384645359208567,-0.1040698646536623,0.016811031978912285,0.009360955571772736,-0.06740641989254846,-0.11684307691903903,-0.11992766754538245,-0.06480448807464714,-0.14127846060973487,-0.14012037798694546,-0.14264216748185085,-0.09628350979491436,-0.09420878845876472,-0.15272545251488495,-0.21613652347191967,-0.21473339619040835,-0.1850173685405483,-0.04817490975921978,-0.05207826865321523,-0.07225086122827518,0.30318738459441763,0.3029921515269749,0.28733249040526937,-0.18290074817092236,-0.1823153404014256,-0.17749143098766032,-0.06626219178390455,-0.06654643173604588,-0.07375821222214449,0.2146765172855281,-0.19749195036972592,-0.2642122568004659,-0.7394982910560912,-0.19791342997126732,-0.7075125657343249,-0.1549931910121172,-0.4351279785766445,-0.4912403506776688,-0.4422648824851635,-0.8256563194339891,1.0598070069974808,-0.3073216262739995,-0.14855559902962034,-0.3023777435995696,-0.3109090164362969,-0.33076857637385165,-0.2286589459668301,0.3170460124294245,-0.19791342997126732,-0.8077411010656909,-0.8294364225552255,-0.8294364225552255,-0.6794347366618,-0.6526711170335198,0.9568959763626128,27,male,3,5,300,excitement,3,4,3
41,0.5248247390608433,0.5108252867670368,0.3231418539772585,2.9994214016799785,2.9334294903617555,2.277722617782004,0.14836477100733347,0.14705514685328466,0.10890895333958256,0.2350636661470217,0.2356833989196885,0.1286134081039536,0.21753852936473853,0.28992327727382305,1.2547627746444214,0.2022380714907236,0.1851633040136148,-0.0012663376505038881,0.06342664279227585,0.08596723776625098,0.12030506003869115,-0.15485715907283196,-0.1525397733125582,-0.11100814857292048,-0.014514361988154027,-0.010794192635352612,0.017269425555878324,1.1790958428454272,1.1735648110997896,1.0324060582289598,1.5729135302878725,1.672473585460989,2.7897798242890213,0.7421860733130927,0.7418414337201567,0.7116386830904421,4.333770436672694,4.35412464037462,4.403445129406422,0.5304230996136927,0.5294686673969465,0.5112433929653353,-0.2583741926234783,-0.09463803940991117,0.20486451760314905,0.7536250106991227,-0.09939327919501308,0.690346076686897,-0.12597515210881774,0.3378492340729178,-0.22702189772794126,-0.2713176294118609,1.0357767558519888,0.39803042562060015,-0.4246365076116997,-0.527012385878693,-0.271802586099373,-0.2173883469755689,-0.3721221091896498,-1.0783597919410963,-1.4051364347316209,-0.09939327919501308,0.9021839343706708,0.9829112071733276,0.9829112071733276,0.6740400643967782,0.7678752993762281,-2.2656204498278893,27,male,3,6,National Lampoon's VanWilder,disgust,3,3,3
42,-0.11012708873693336,-0.11035747809048346,-0.09869298181861888,-0.09061924958394472,-0.09475983913019308,-0.09526435291220553,0.03161724880654615,0.03275727695915398,0.09522524561608196,0.1759277442310537,0.17813890214882594,0.16448343623664333,0.20618339714600986,0.22308251533765736,0.1583085899103605,0.14892810347862973,0.14482385330105965,-0.042340455440975484,-0.07933814510259986,-0.07952563055926093,-0.16358036480611446,-0.08753869898840279,-0.09737462014114592,-0.16950307368474746,-0.07427893398191532,-0.0873908278567494,-0.14221647301414833,-0.0621176676243798,-0.07139523349572441,-0.0916039006625532,0.03249969701685356,0.030388372957233963,0.04977349775456355,-0.03327745667678092,-0.05589165569520591,-0.16791352671361134,-0.1886461718241179,-0.1880782776691204,-0.18324272666567426,-0.07064483636977667,-0.07092187418109787,-0.07800846388436386,-0.42215646422743397,-0.1960318515215414,0.3818354115215016,-0.19446773642426354,-0.2016653780895839,-0.2483436232688556,-0.2677566591983457,0.3683193826423521,0.2921441819308201,0.22041740148313416,-0.5024906957900349,0.1155975826802571,0.18603724768378105,-0.4755698204368721,-0.21052072852289805,0.9828161767238164,0.4622135873084315,-1.1190276981791554,-0.8851719612885776,-0.2016653780895839,-0.2125508133915491,-0.15400598521980333,-0.15400598521980333,-0.13095653692992235,-0.2517896147501264,0.5474361985838678,27,male,3,7,Wall-E,happiness,5,3,3
43,-0.2279691958213653,-0.22860222023305254,-0.1785985032951744,-0.11546228838428672,-0.11514257528959408,-0.1089806620658547,0.046126506289493586,0.045358193261669816,0.005100440193285367,0.18377470203359766,0.18435141187382176,0.09533195040029632,-0.27244171430493225,-0.28028009615050153,-0.20363907532595868,-0.01609835198112118,-0.02184385738646089,-0.11586898351214313,-0.03172951239560176,-0.03289564447937318,-0.04261006603680492,-0.14000431578715272,-0.13871744992255872,-0.16116552490810193,-0.06713801453322955,-0.08054110422139765,-0.10221489808050699,-0.1068365488380423,-0.10562579795012746,-0.12639890893863953,-0.018778319475137948,-0.024295421359190415,-0.10868933295975353,-0.1175795377278442,-0.13591155067198804,-0.2417667243980973,-0.22360256042543072,-0.22316752415745,-0.2185943311434415,-0.20450631348300805,-0.20453334581108334,-0.2087290312949965,1.5181483513085392,-0.3935439328796892,-1.4342226738146215,0.0481160055009752,-0.403486920773533,0.2496963704137343,-0.16158344174317846,-1.4729140040354367,-0.3243655390876098,-0.14711784432408442,0.2885123980899057,-0.6023407513494207,-0.3834760652957502,-0.11005222277688408,0.05781262813340472,-0.3538975283718658,-0.4855797936677546,-1.2074684387675438,0.5139046797128359,-0.403486920773533,0.3067693606463577,0.6438424960560902,0.6438424960560902,0.1356825965492142,0.28824102733526696,-0.3485037437242366,27,male,3,8,Crash,anger,1,4,4
44,-0.1823166657377774,-0.18098058042898532,-0.14669095111946506,-0.10666513331413913,-0.1066156825136026,-0.1026083448143755,-0.02129121626033066,-0.02019335927451915,-0.04752621069806535,-0.07971641334335057,-0.08312202407046806,-0.12071250866549285,-0.061590811920475975,-0.08150478904536665,-0.1856148002810787,0.027782727372618183,0.020010760129078285,-0.10824448932408318,-0.14239109461597824,-0.14318512196587346,-0.12126809105473442,-0.17489657531285085,-0.17179234356493536,-0.1729643732897749,-0.13573431694032131,-0.13494226443401336,-0.08119541279320636,-0.057520341380656224,-0.054877824935860464,-0.11821693350123112,-0.12618081553660582,-0.12727824394856202,-0.10737299909399267,-0.09448762528385138,-0.11309538415175598,-0.1146881587877805,-0.19135011842176386,-0.19080739695116747,-0.18607830477760004,-0.19064734196341,-0.1908096304209966,-0.19581015370218727,0.16579029469935627,-0.6897503168662107,-0.194989190800367,-1.3289433021161356,-0.6904091485408248,-1.2964669205842378,-0.7185972160107756,-0.3037030663340212,-1.3951455788583549,-1.3482374815230422,-1.1773653080079451,-1.0319982059256172,-0.4473865717546071,-0.5480554144543253,0.037657309497556635,-0.2579415010982,-0.35601217977681265,-0.8613066013295365,-1.901164664266716,-0.6904091485408248,-1.4256319952554215,-1.3136077712106076,-1.3136077712106076,-1.6802629790409294,-0.9034764036882535,1.9100379195550032,27,male,3,9,My Girl,sadness,1,2,3
45,-0.07596431804711451,-0.07688953484965767,-0.07586183913584524,-0.12795037387236838,-0.12742041948421376,-0.11878556897069845,-0.15248994093473342,-0.15245847156148173,-0.14889129854957328,-0.3638247071202,-0.3753237591195727,-0.3761371272628076,-0.209640253865903,-0.21136180549798264,-0.11096361986323157,-0.14886410710696682,-0.15538011150287392,-0.16516186150951867,-0.22644663572372864,-0.2296651614001473,-0.2393365218914007,-0.14129773361390102,-0.13948541941504702,-0.1800779742081354,-0.18089332241107764,-0.18765146162402405,-0.2234519709255781,-0.1757360380482887,-0.17421684884005434,-0.16285625752424407,-0.22750595433042464,-0.2260109168273501,-0.22398371426588912,-0.30755242702865226,-0.30702382586926924,-0.2990487911828145,-0.20931315216224627,-0.2088224179777988,-0.20413817200130216,-0.10383244375591352,-0.10403845562120888,-0.11038820332904868,-0.16676969895639066,0.3628282189917983,0.11295423200788622,-0.8609295489398154,0.3773191679229192,-0.8629970707688299,0.3946513835400901,0.1271131363371644,-0.40084982710032,-0.4146733556518073,-1.1718912385693765,-0.7436824355266918,-0.4579164820216778,-0.5650041481346421,-0.3171937894207747,-0.2612585045162366,-0.2316948629931659,-0.2608202640799712,-1.8817853690404958,0.3773191679229192,-0.9672296166170344,-1.2660456912053983,-1.2660456912053983,-0.5654333495388837,-0.7970062906285005,-0.6650592323035915,27,male,3,10,The Fly,disgust,3,2,2
46,-0.08561316482143874,-0.08611613410347775,-0.08145302218971147,-0.09172075042979101,-0.09189584901710247,-0.09074148128272336,-0.09432078913222064,-0.09416664160290916,-0.08998556524363199,0.3471051555199777,0.4167374131427582,0.4751554336521023,-0.18741008161085945,-0.1916250350714821,-0.1596678406338721,-0.1401934866652033,-0.13685159074044234,-0.10368303682391528,-0.2458249505534945,-0.2469526326626592,-0.25447978098266794,-0.1507707600056086,-0.14944663168855826,-0.15103111235301395,-0.11434658380355785,-0.11262045864592996,-0.09380446702199144,-0.1651152687690842,-0.16369490928397848,-0.14011466838574374,0.9989955330865594,0.9759217427241049,0.858802808744928,-0.03942286028461794,-0.03914627732411555,-0.0410613112082512,-0.2063084438400641,-0.2058148103556421,-0.2011507717431676,-0.1504965786726435,-0.15054776399989994,-0.15556732060903278,0.12656744731742006,-0.429567677825272,-0.1697959569156134,-0.1750269040403088,-0.42812241760698777,-0.1604482380100316,-0.4316042151247817,-0.08186534223327628,-0.23513386973944797,-0.2305083996559981,-0.6818074035578544,-0.8485672333933041,-0.3634735669814669,-0.5118086981831956,-0.25733125850975763,-0.06047428376498192,0.034049555327466,-0.5450613654246493,-1.2272290307876828,-0.42812241760698777,-0.051481755242348236,0.2366401166311829,0.2366401166311829,-0.14216856095552605,-0.0451445621626881,0.8062099307351959,27,male,3,11,Pride and Prejudice,calmness,4,1,2
47,-0.2326071179957279,-0.2300618574424137,-0.1796270699026093,-0.13887800332834466,-0.13866735949743422,-0.12758485032777442,-0.2788026652328162,-0.2789460085489928,-0.2759953085245606,-0.23093259212032502,-0.2336160590464347,0.02819595068107845,-0.02693917541314961,-0.01823525393501596,0.008490791646132263,-0.1250175235989246,-0.1344051757909895,-0.1545291094346888,-0.07047003993231579,-0.07183292983902591,-0.08206590379856997,-0.1591741313482927,-0.1620663996505284,-0.2022113153550666,-0.18523077087414605,-0.1928976039336176,-0.2275709473854271,-0.16494615356458867,-0.16756130197069685,-0.17305205492263834,-0.2865974495519726,-0.2865927358147323,-0.2787289100434303,-0.33214263801832417,-0.3357810567208989,-0.3297549078806901,-0.24641057724392634,-0.2460704325301251,-0.24170465280101602,-0.23762975383659898,-0.2377044085526941,-0.24165552148712016,-0.3996151855843351,0.04558423276890064,0.3267336875323405,0.7920806211896769,0.04000485941271489,0.7067391507937093,0.00503586546097594,0.3062325317713177,0.3813758512789816,0.31438265857393866,1.8829818704943213,-1.2300903882029446,0.3097591659397842,2.923804555331437,-0.23494426689730336,-0.3443067728801951,-0.3208405040003164,0.7877327350448093,2.870891653332578,0.04000485941271489,1.1297749774131165,1.0704650185081013,1.0704650185081013,0.8952695751293515,0.9446064977840452,-1.0003420402441858,27,male,3,12,Modern Times,amusement,5,3,3
48,-0.21596164470744147,-0.2138363030120364,-0.16878957917210086,-0.12878365343557271,-0.12819844027282204,-0.1192635217124541,-0.2520527135625257,-0.2595712544560351,-0.2670410688660617,0.13046963346955964,0.08730210151058951,-0.2487623595309181,0.18125123422633455,0.20212646179249252,0.25776858305783784,0.17869123240499374,0.16566029438026755,-0.06619756798470172,2.40437644756622,2.4498112423955742,2.3931649834664293,-0.1223004630968446,-0.1208843699148451,-0.15543768118799114,-0.0362065002207598,-0.0506809954733975,-0.13511266245216466,-0.09686801560536856,-0.09512862951552042,-0.11242374921998602,-0.197484842229053,-0.1965388459123749,-0.19713283717424293,0.4642567028013906,0.4642331179264437,0.44442767926288856,-0.23595510677788675,-0.2355646127580688,-0.23106861913845714,-0.1776378505685135,-0.17767233318471584,-0.1824270076310616,0.4077344081687885,-0.09670807937138877,-0.44166983836453205,0.22069414315851169,-0.10594504528487064,0.2709199928601219,-0.00795802839919707,-0.5141918919940635,-0.12967825889920753,-0.0730548380813886,0.2590779061971061,0.9660040444889398,-0.1389765349628232,-0.09564490936517336,0.03474434873309865,-0.2423287352440583,-0.2803429799336548,-0.622484740577423,0.33256511092545793,-0.10594504528487064,0.2424112598416047,0.26794651158945704,0.26794651158945704,0.2606462489943207,0.09965097382281367,0.7378735284645299,27,male,3,13,Remember the Titans,happiness,4,4,5
49,-0.17000367551970302,-0.16888947170713425,-0.13832211713280088,-0.10814306840632032,-0.10803612048490613,-0.10361764468741294,-0.04075168907170719,-0.040538876482565975,-0.0362998922371809,-0.053122483799120886,-0.08871682690718709,-0.3003065927497705,-0.1395738007304196,-0.13890112936269458,-0.11255578123356692,-0.3209149429513956,-0.3083370520141497,-0.2063104613199842,-0.1447613182701286,-0.14602885246066485,-0.1551993972245079,-0.1395475368495436,-0.13655028968118604,-0.13759431584536058,-0.10238008475282703,-0.08751984356611768,-0.013590454961842184,-0.1737234643512715,-0.17150203650359394,-0.10652799977417916,3.2491878724852885,3.179512258997097,2.8369327600603413,-0.05845396187205153,-0.05819175339052374,-0.05970957483030751,-0.19205653669998926,-0.19148134266721406,-0.1865739779094467,-0.1829450443601593,-0.1830837454100262,-0.18809035850504907,-0.7120171062775498,-0.19729382237280996,0.6727320017133918,-1.0768521620151608,-0.2010972825024455,-1.1167673750460267,-0.31822137543852336,0.5701715999420062,-1.0177255010202044,-1.0445018480004096,-1.1146558005437324,-0.8290265498227626,-0.4582289389765565,-0.5485422384366461,-0.33024618807264233,-0.32835767208569816,-0.37079659380210267,-0.2552625049543225,-1.83432018046764,-0.2010972825024455,-1.2067942243445098,-1.277887434817518,-1.277887434817518,-1.1309271109476269,-0.8510192673610187,0.6161807845639716,27,male,3,14,Gentlemans Agreement,anger,3,2,2
50,-0.20201987318928452,-0.2000940936394655,-0.15914171830804524,-0.11605108973303928,-0.11572262252036533,-0.10944457358855766,-0.11034643002166054,-0.11016424437482797,-0.10583033486622766,-0.3013124375607789,-0.3016152629326467,-0.27355164320432424,-0.2030515241145613,-0.22039045038815247,-0.22045267879755948,-0.18385766544065968,-0.17832473479415792,-0.12866124858181627,-0.17181411508261124,-0.17305388579330508,-0.1817707938571292,-0.1945139896762874,-0.1913958939579472,-0.1916041963570868,-0.20900085935424964,-0.21071577983769912,-0.20047941886017814,-0.1859155511868614,-0.18675516140709592,-0.15908765378063594,-0.25255879971589296,-0.25055563355650184,-0.24602583519561136,-0.28033362828066083,-0.27980119915361,-0.27267586161183244,-0.2452178022209707,-0.2448758706769179,-0.2405135846597861,-0.2308252534707665,-0.2309192205098876,-0.2350454633742393,-1.2510971900417691,0.6632475481958191,1.254327828478103,-0.1410740630782208,0.6561407166241482,-0.3005457314865289,0.4836600749572452,1.5025954760965552,-0.8599479365804301,-0.9690067321931854,0.17101171055785325,-0.4534339250579761,-0.451651313861722,-0.4775913103040875,-0.31315480827241843,-0.3588520529927425,-0.4458240584340582,-0.4550406946148933,-0.8566091436003609,0.6561407166241482,-0.23440544035234984,-0.7149707288526099,-0.7149707288526099,0.277705911056408,-0.4511023352539278,1.6941551363714833,27,male,3,15,Psycho,fear,4,2,3
51,-0.2562572866635243,-0.25324631110847845,-0.1955089980665683,-0.1406665359455145,-0.13985879923271258,-0.12849652692658284,-0.27069580377304203,-0.27690188598258697,-0.30634527426789,-0.2467807419936641,-0.2467147731860671,-0.2251694404367792,-0.037552934483955074,-0.030435668281812663,-0.2035972110483445,-0.08091685023388089,-0.09522936153142796,-0.1515878926683868,-0.16324196119438045,-0.16614013140129724,-0.17504461756233114,-0.1681510490554374,-0.16972470435384782,-0.19787302643914548,-0.14035577284434894,-0.14937094920161098,-0.21432639441867946,-0.16323884080100054,-0.1656782822221476,-0.1690808878469635,-0.202529477768997,-0.20938859742198648,-0.21161685742493944,-0.2989716846313435,-0.30574084734380963,-0.3145858675510115,-0.25243105644442,-0.2521170754309248,-0.2478110441884644,-0.19356845197808545,-0.19359591217099664,-0.19792955933469544,-0.8840969249704278,0.3575871916014349,0.8673906233775459,-1.1807606084733404,0.3520544050226629,-1.2287161653196217,0.2383771488274481,0.7029414166940837,-0.9733231380283276,-1.0127851138018418,-1.1159981040006248,2.1426034772641875,-0.4584245648770016,-0.5286673627925377,-0.32225251978535746,-0.35360618179252856,-0.3410479188625996,1.0149452061389728,-1.2411310979750227,0.3520544050226629,-1.2893010213476914,-1.5651742182658948,-1.5651742182658948,-0.9677877467713036,-0.9195818149032364,2.783175549614834,27,male,3,16,The Bourne Identitiy,excitement,4,2,1
52,-0.22029374418540246,-0.2180814514411545,-0.17171150057118328,-0.14822229746957424,-0.1472530320328458,-0.1342837649775465,-0.1936989832727053,-0.1936881184296144,-0.19024817427986876,-0.4868337041064972,-0.4865564321536214,-0.4012593939197787,-0.2861906962708696,-0.3026874329722025,-0.27771114383049306,-0.24929085871701906,-0.2382151785680116,-0.1741943986401808,-0.2459967163684015,-0.2456389415315541,-0.2378140043218525,-0.22297177821953826,-0.2168051698940042,-0.21873253191422176,-0.2456908998062993,-0.2450055085540705,-0.2583800359713739,-0.205063342480104,-0.20178036887286527,-0.1778606741573497,-0.254659282214543,-0.25046835216182034,-0.26295339448892324,-0.2901020466195966,-0.2895644514983761,-0.28219776774425465,-0.24722988087976966,-0.2468952274677213,-0.242554286975893,-0.22050277127903414,-0.2206007433956373,-0.2249024245603457,-0.054785122209994465,0.5425571016552169,0.02744157850489237,0.6050836410954452,0.5288794926405224,0.5757737988180079,0.6113470460926103,-0.007199132106599436,-0.27028574001952804,-0.2734753733900517,2.637875818393563,0.4875419550380309,-0.2123101936357137,-0.5436092430832642,-0.3011514706116544,1.0940082305027972,0.18416870560349152,-1.2683799017305828,-1.398978315604298,0.5288794926405224,0.5375544326679973,0.05540492076779325,0.05540492076779325,0.7332389554206798,0.13573333021055564,0.4955122180877786,27,male,3,17,The Shawshank Redemption,sadness,2,2,4
53,-0.2687296146997968,-0.2654516056124777,-0.20381068592730772,-0.13784565824051687,-0.13816283300882173,-0.13385608161226578,-0.1818017703300581,-0.19512578718264725,-0.2713711748961023,-0.15768609533108333,-0.1582107479428966,-0.0482252791343248,-0.375523976167292,-0.3906312647187865,-0.3434830407758049,-0.2650923543806826,-0.2589821495602114,-0.1948640152382164,-0.20823820284339292,-0.21300453453972487,-0.22371877873141316,-0.1915625051961,-0.18771587191132733,-0.20058933416698427,-0.2648979528972991,-0.26653630167292186,-0.27395521736852696,-0.2107831257628572,-0.2099565490797421,-0.19029203517904625,-0.2720558322489741,-0.2733487529524481,-0.29373085043973746,-0.22432712975156316,-0.23599821641012544,-0.2879624911295358,-0.24333346243007156,-0.2433105308054688,-0.2389208115353157,-0.2482459467898084,-0.2483105312155384,-0.2520726277891907,-0.34839346113375164,-0.2800428259744369,0.2921724346185813,-1.0223139669263277,-0.2835139498312057,-1.034648139407849,-0.3440399429078813,0.18863852906926126,-1.1420521148665257,-1.1349773793467035,-0.8704642311254022,-0.015470667514088125,-0.4509509685884241,-0.5601745114752434,-0.3017457890480544,-0.21938787770900212,-0.2265302057562497,-0.5533666809526052,-1.67281244936492,-0.2835139498312057,-1.0964891620227528,-1.112578957932979,-1.112578957932979,-1.0046422991359203,-0.7931741226763721,0.09383713909554944,27,male,3,18,The Departed,surprise,3,3,2
54,-0.15181569070472148,-0.15113318871599832,-0.10543734275342087,-0.07792465470874002,-0.07848771322664826,-0.06463727116250287,-0.10028700326433064,-0.1002243303749209,-0.016122242335930015,-0.215889657441112,-0.21578642210113316,-0.05502458085526743,-0.27753783914301555,-0.28421933787837456,-0.2068260663882469,0.34801917273496474,0.4513564940235091,1.0601387788810035,-0.18245011448716486,-0.183678621953664,-0.18610077057075214,-0.1761607919101997,-0.17281600656618284,-0.16228185183804966,-0.15176058734089,-0.15079233546323392,-0.1354854879448414,-0.16846240627867962,-0.16629721409702766,-0.1341042944058002,-0.1666681414965534,-0.16641856314755096,-0.17043872078628095,-0.16469001998065064,-0.1643385881030826,-0.07988607215890269,-0.2157782932898783,-0.21532438728344688,-0.2031741621080976,-0.16206401557272934,-0.1622479785321956,-0.15161559726885035,-0.17462211170989694,0.8619331875421617,0.13235947271271034,0.8328247486709021,0.8592761273363301,0.7795991520262171,0.939960263586864,0.15711910096802004,-0.04531377174557572,-0.07562514334080732,0.8237356678199651,-0.09437051610580853,-0.09376968833540088,-0.2941486991560281,0.06446164638656147,-0.10250135410804498,-0.04560664215456093,-0.569465085607169,-0.11283162193802353,0.8592761273363301,0.7436450878474904,0.014415722557388284,0.014415722557388284,1.0206030003696902,0.20227075021705795,-0.4491239283588151,26,female,4,1,Searching for Bobby Fischer,calmness,3,3,1
55,-0.13540763848374246,-0.13507112489309392,-0.01838798395484009,-0.10653881476269243,-0.10647368738648627,-0.08236588033290458,0.3789145742196329,0.3797665999161782,0.38640721417554996,-0.06101971649229353,-0.06007020066544879,-0.0620028381593705,-0.285289191593457,-0.2923664727103292,-0.11201294301684783,-0.17364086044481805,-0.1686216288856575,-0.12285118792679355,-0.1254233344426074,-0.12674551895769087,-0.07515627236490936,-0.17196725957831635,-0.1688192834869273,-0.13584787849843835,-0.14891513316557814,-0.14787350375296646,-0.1321758582815099,-0.18227354909877516,-0.18001634130657596,-0.11442978352326495,-0.16960683621039152,-0.16928112839692466,-0.14166776348900215,0.0953058168791254,0.09539679588837273,0.2330129355154669,-0.2231591686701972,-0.2227293328581761,-0.18000234758696315,-0.16465106712559435,-0.1648206710427287,-0.12093334350404615,0.7115857388553106,0.7077337149485036,-0.6800684825206578,0.9897455141369406,0.728924202879278,1.0868815177631443,0.9621152160571196,-0.550127055274892,0.5934459246577151,0.6539054403848615,-0.5582004078098594,0.7687811254982914,0.6923959140567881,9.136025956799298,1.1958473900372428,-0.3673107210098312,-0.390231868072716,1.1867988058476937,3.5183606308630018,0.728924202879278,0.926880140803254,0.25980453992879593,0.25980453992879593,1.0041132258943477,0.4058061146737198,-0.1010564446583106,26,female,4,2,D.O.A.,surprise,3,3,2
56,-0.15829849824399034,-0.1575650329704211,-0.13117732396354048,-0.10984854521457678,-0.1097504102485604,-0.10518374487062282,-0.1130973195074394,-0.11324899182164305,-0.1110410439628092,-0.20845341321739647,-0.20857563532569512,-0.1938237166207443,-0.28149661288695393,-0.2885072465606954,-0.2309568279704877,-0.19909907649567152,-0.19287433484620006,-0.1377339761516775,-0.18029607810350784,-0.1815929991426244,-0.190653332992654,-0.17800084871598798,-0.17461441824527527,-0.17590669832846867,-0.16882954096717945,-0.16829303442039587,-0.15521050156427366,-0.17464268210450284,-0.1724856798591491,-0.14691451109840947,-0.18047112903808354,-0.18005398632315786,-0.18335798729343386,-0.17395221197560767,-0.17376387103783394,-0.17209032537818836,-0.2193323362887979,-0.2189252299985725,-0.21461162198152364,-0.1675115143603608,-0.1677574788858247,-0.17358810516197676,0.4603598199416496,0.5821581535869249,-0.4916865011406756,2.347296637117729,0.569561603291455,2.4110328241967607,0.7734116157713189,-0.3597995081324145,2.044624681527788,2.0581070681935563,1.1623019124192548,0.8404609535987629,0.04838570239146795,0.7077748681301764,-0.29317885218659706,-0.3042744523311424,-0.2403875854474035,0.3001840699140099,1.141280715098026,0.569561603291455,2.7208366416240746,2.0029324660901664,2.0029324660901664,1.8373229867105456,2.6073666966132487,-1.833861170698248,26,female,4,3,The Hangover,amusement,5,4,4
57,-0.12738851205523954,-0.1271912870129343,-0.1099498974705982,-0.09936906036254307,-0.09944613348707514,-0.09686888741930384,-0.05161251963840692,-0.051359818878280186,-0.04677006624584115,-0.11877942159107865,-0.11803230832355445,-0.11221965953625213,-0.2476792999784782,-0.25270557359313633,-0.19851499552250707,-0.14176054982747532,-0.13833136898560278,-0.1045790659421374,-0.16428914428055086,-0.16551656043452845,-0.17423167283382565,-0.16294169274266038,-0.16021374563676966,-0.1616436384537493,-0.14320898228598766,-0.14201587667927232,-0.12552407673312346,-0.1596992385188381,-0.15756060135312713,-0.13345252641926067,-0.14491547117968692,-0.14504151371475607,-0.1508175402028986,-0.11697227763869378,-0.11657748098465705,-0.1153923412477594,-0.2090267524057101,-0.2085263747658343,-0.20378797490988296,-0.1464140032018306,-0.14657897123428926,-0.15213135211471165,-0.3248683292633008,-0.3439343518569549,0.2685469577945184,-0.4279472501673931,-0.3476993474627568,-0.4596510087665236,-0.4098967672949368,0.05843302330971821,-0.20876996639665424,-0.22145638584810526,-0.4036287288987759,0.1883390300327164,-0.4040954590076076,-0.4302637537053373,-0.31588965672982555,-0.2995978442224804,-0.2725269479021173,-0.003764031782167549,-0.5531025016410835,-0.3476993474627568,-0.4472093250899822,-0.31060415640212985,-0.31060415640212985,-0.3860434694989142,-0.3909161073691157,-1.181848871245417,26,female,4,4,The Ring,fear,1,5,4
58,-0.15151226995877454,-0.15090238550785112,-0.126546491237129,-0.10813003614196533,-0.10805930173958032,-0.10381232859917484,-0.10235699603811013,-0.10243483952190194,-0.09978940293524363,-0.19102296771259766,-0.1909830634829388,-0.17800640980736754,-0.2764152683979704,-0.2831202449136419,-0.2260326914435684,-0.17016558632772838,-0.16541738363149425,-0.12129933088107105,-0.180347816291635,-0.18162330739910232,-0.19054636922779736,-0.1765363439701854,-0.17320640470582613,-0.17446515618587666,-0.16679800526675342,-0.1661895226369866,-0.15269348816714326,-0.17210236327505782,-0.16994735252619805,-0.1446185233888958,-0.17477015577657345,-0.17443520207040986,-0.17810710120551093,-0.16744033280421178,-0.1672060776205534,-0.16544882190236582,-0.21757444567353032,-0.2171505240472449,-0.21275842389830305,-0.1639894750053531,-0.16421956307337413,-0.16998856678572424,-0.08360389895611946,-0.3578612981482043,0.018392818048786258,-0.4770502219646024,-0.3594073881341423,-0.4794453424001057,-0.3834820042289924,-0.10649100283054827,0.14149330930190465,0.14054577667630938,-0.9372062438757136,-0.488293767387552,1.059447963015974,0.06353999553700558,-0.2755722771315141,0.13681054083793515,0.5600588049822776,-0.3040483793054973,0.7001691177303918,-0.3594073881341423,-0.4978355201326991,-0.361454698314394,-0.361454698314394,-0.4472484389157643,-0.4245771379358781,0.1833302909056964,26,female,4,5,300,excitement,4,3,2
59,-0.1267217347077825,-0.12659326144470762,-0.1097840236066606,-0.09948893663954746,-0.0995822611606834,-0.09707126977570148,1.1951598247723356,1.1970721321115785,0.04335071471049585,-0.11431681727862518,-0.11370106749370198,-0.10931101326644838,-0.2498967663013699,-0.25510883168851445,-0.20101040280804824,-0.13222391695249547,-0.12934520464659235,-0.09944901978186843,-0.2290571843679621,-0.23225958914049136,-0.24354151444167144,-0.2176619871541931,-0.21229140796847604,-0.20300059436308668,-0.20297024757000826,-0.21448045874144386,-0.20444545441187695,-0.16131567675316508,-0.15919412407223718,-0.13503457014796044,-0.1439398487418895,-0.1441513329178198,-0.15040300937662593,-0.1190534733928432,-0.11875624010629715,-0.11811600742368746,-0.2104931666916684,-0.2100179173743041,-0.2054182260294152,-0.16112002388471516,-0.161301543206398,0.007573450099616127,-0.3747699848005564,0.3580827520364577,0.3176841280737253,-0.5106411445912118,0.3544294581742109,-0.5446295137172382,0.3474433156039077,0.4573530490021038,-0.6921081783186211,-0.7267111953610499,-0.7171877932314876,0.08697025133685145,0.02186115075391369,0.7479318493647223,-0.027037841993868824,-0.3114580017440505,-0.30036128531090434,0.009432206492075915,1.1693935503106354,0.3544294581742109,-0.5445680027581936,-0.8524433274895777,-0.8524433274895777,-0.12484566615927872,-0.5847614407572591,-0.6904434189116047,26,female,4,6,National Lampoon's VanWilder,disgust,4,4,3
60,-0.13113511278377316,-0.1308425359840348,-0.11236655813123278,-0.10150488210437318,-0.10153171629142717,-0.0984775542980402,0.045707558588445135,0.04617544908586943,0.05175677651360131,-0.12990688535542202,-0.12917966399190933,-0.12176089732825122,-0.25459273200342714,-0.2599730749322782,-0.204804540558948,-0.14359054140137625,-0.1400509943461213,-0.10554047423483492,-0.09907721049419484,-0.10040360187540218,-0.1900581150910868,-0.19706522559459155,-0.19269272041421,-0.1928734617939535,-0.16379249950045385,-0.16299328558546894,-0.15752872707443855,-0.16221409301079695,-0.16005484722039795,-0.13560217225518792,-0.15166879852377124,-0.1516443760783105,-0.15667606980450507,-0.12894369983859352,-0.12851348033106316,-0.1267310022129044,-0.21126862274176328,-0.21077299881426564,-0.2060237953122826,-0.1507695911578423,-0.1509219717478804,-0.15634387284047987,0.2938601931237069,-0.059499916706213386,-0.3388574679519198,-0.3047556591573198,-0.06414911362932862,-0.2674694688951014,0.014330422336709257,-0.19897634511273984,-0.204117513758844,-0.18620780977582094,-0.21880591189583998,-0.6656968024748511,0.13710254222748408,-0.08087504495046041,-0.2914471334566397,-0.12323559290825405,-0.07863898693734507,-0.5697631494388957,0.3348463819441533,-0.06414911362932862,-0.3335922693724871,-0.3919958170914692,-0.3919958170914692,-0.14980474939786373,-0.3760173640452368,-1.2763005810336592,26,female,4,7,Wall-E,happiness,5,3,4
61,-0.13914805303866834,-0.13874790647777874,-0.1180326888949615,-0.10498476727841774,-0.10495989455192137,-0.10127784958823187,-0.07655227533820706,-0.07645628066258975,-0.0727889238567246,-0.16473509028371214,-0.16438283090192646,-0.15371096086851174,-0.26609728049227005,-0.2721742666885156,-0.2159880673715774,-0.1579577344693303,-0.1537630131369575,-0.11405470073558273,-0.14076935575252034,-0.14207886858850394,-0.15773809451187826,-0.1666840810444114,-0.16380236123126862,-0.12487595640050335,-0.16558723542867407,-0.16488871919291265,0.018587600542515438,-0.16644991627971548,-0.16429804133452233,-0.13950228594584024,-0.16321200522972024,-0.1630350761886775,-0.16740595016354154,-0.14663921724448914,-0.1463147789025883,-0.14464714846404336,-0.2127494715557863,-0.21228404482609295,-0.2077082239112032,-0.1562793055870155,-0.1564728596419201,-0.16209752897780993,-0.14015903159069878,0.11210086464357344,0.08237204962352662,2.863886353718049,0.10716054970401047,2.76524754427473,0.12434283485696808,0.3390352815616358,2.1903451618695406,2.0379723627040622,2.1735474535827617,-0.3212919835743179,-0.03908203041189998,0.15898521394541426,-0.12519745551752012,-0.2641842285991637,-0.3819985378852229,-0.9526266928936512,0.9019086381657776,0.10716054970401047,2.955644624743699,2.872473257626641,2.872473257626641,1.7516447165593616,3.5019886934934603,-1.2110107216138155,26,female,4,8,Crash,anger,1,4,4
62,-0.14111372153201254,-0.140692278604547,-0.11944833466057067,-0.10470959558197752,-0.10469858416945822,-0.10111415343387634,-0.08279984210842134,-0.08276076434372216,-0.07944080232290096,-0.16763245532043872,-0.16735603176188982,-0.15666395008929698,-0.26468854888401266,-0.2707187215770821,-0.2148740416547414,-0.15279071073117712,-0.1488880694515721,-0.1112481209150876,-0.16978231890802026,-0.17105174579139834,-0.09081152440460992,-0.1643394624628494,-0.16158485518458438,-0.10821323365153304,-0.12662695451524056,-0.10285627210799712,0.009568825830445006,-0.16713138224831606,-0.16498647030656158,-0.14016787919279794,-0.16368773220134256,-0.1635278284454739,-0.16800667109077752,-0.1463348717849982,-0.14605202745753634,-0.14465490693182514,-0.2141368239312457,-0.2136846190024358,-0.20917046941161896,-0.15669232065459518,-0.15690214417781953,-0.16262648015931586,-0.7947403039920972,0.638541468184322,0.7619875444096789,-0.3284188347633068,0.6509508787999142,-0.4195127348985245,0.5583461737454228,0.8809674328682728,-0.7272600485987009,-0.7972351699698719,-0.6564104403736815,-0.17185852997437978,-0.3951962590166692,-0.4447135693967951,-0.31604783904764305,-0.27513896886390976,-0.23260454866704586,-0.11420942437244425,-0.6505288528537694,0.6509508787999142,-0.372098575759867,-0.8345263929997183,-0.8345263929997183,0.17446310051990685,-0.5306353173478849,-0.6264668670436446,26,female,4,9,My Girl,sadness,1,3,3
63,-0.15791208068862067,-0.16465518226796771,-0.1682078982286825,-0.1365490803119517,-0.13582554225871946,-0.12533551440502422,-0.2075194722993174,-0.20757808240267744,-0.2043622953530014,-0.3554316090263377,-0.355989786012249,-0.32107441246427226,-0.3298918994022697,-0.3461466109839797,-0.3156045296590949,-0.10824278256454804,-0.1077390295434783,-0.09175440914163918,-0.21616825021151306,-0.21732648241139427,-0.2252748620356689,-0.21429617271617013,-0.20908739633990994,-0.20858091399673195,-0.24486708125674064,-0.2456946305133252,-0.23851971483619325,-0.20356276262730855,-0.2031471807357671,-0.17881649596346558,-0.2374013702253548,-0.2412226348231736,-0.23815181491837,-0.3110982371132539,-0.3105522900972051,-0.30235926408295016,-0.2404546069357425,-0.2400911943394813,-0.23567136555455984,-0.1852911670767819,-0.1897379647475084,-0.2067126408694084,-0.2979995953932528,0.28071706378388905,0.2346207596823605,-0.1689508660697053,0.2917120945394853,-0.2055427305965377,0.27994851164361506,0.22490308791956146,-0.3669533813915477,-0.3919918734244909,-0.5837902250806674,-0.17004767841597854,-0.3989894090561544,-0.5647222373749932,-0.2649825393424835,0.4941599133115293,0.20516479424571346,-1.0576539249491683,-2.049155198850253,0.2917120945394853,-0.3023055607549573,-0.58578836304199,-0.58578836304199,0.051919490953356906,-0.42866021150507694,-1.1603319176964242,26,female,4,10,The Fly,disgust,1,4,3
64,-0.21818947399348426,-0.2200729609168345,-0.19432690206285894,-0.1480009725427997,-0.14735613082333532,-0.13578605442007574,-0.251448825197252,-0.25897025803867857,-0.3145020973264148,-0.5099885011801436,-0.5113577518855564,-0.4571748831028864,-0.3686343332220197,-0.3838442673948899,-0.3380229449041563,-0.29689596411942465,-0.2873678937357524,-0.20033256531380805,-0.22201717161110832,-0.22590868316995624,-0.2527732361971923,-0.22146978992171046,-0.21708248250113185,-0.2254166184614316,-0.24598920207358516,-0.25050440252477196,-0.2706229276785541,-0.21684953781084976,-0.21543810387101103,-0.19170831738848088,-0.26789487731363903,-0.26904712550538185,-0.2876053915615186,-0.29605444790576313,-0.30152405364059703,-0.3408638955165577,-0.25227625996265324,-0.2526641463691389,-0.25069319109853794,-0.2182009636217724,-0.22115002371683312,-0.2430744836942282,-0.2793527104546093,0.3864454787667281,0.2275083437526744,0.02462669832310517,0.3900218232112844,-0.01782374595932203,0.3968897636359209,0.11531179428550525,0.4543835816659994,0.4124383754605454,-0.4827151214823418,-0.2688810841559178,-0.3760485842388414,-0.3749307961681417,-0.2404997180682817,-0.2944308547188597,-0.25540886395552204,0.022869359596223018,-0.3267774806111331,0.3900218232112844,-0.0920129518732025,-0.4374699661531676,-0.4374699661531676,0.2654545866480169,-0.3075641443369341,-1.4860297469206738,26,female,4,11,Pride and Prejudice,calmness,3,1,2
65,0.028027331452653424,0.04574075629046765,0.06290931183058658,0.2359120621020905,0.22863003176017835,0.15976144232467726,-0.0010118717111397026,-0.0006992572891260148,0.0041220337441748335,-0.20032539596987725,-0.20013854676170265,-0.18487347636099014,-0.2594851710641716,-0.2672395488255266,-0.17803854152441528,-0.23453621025638685,-0.22638951358801546,-0.15734169317469388,-0.14135963603319668,-0.14263512274702025,-0.15179605196111842,-0.14556597596203866,-0.14368233891765847,-0.14579842793799486,-0.12558165753581538,-0.12407328322203208,-0.10617754173376366,-0.14890216225907654,-0.14684543077255285,-0.12417590042390685,-0.08788974539826579,-0.09169541836160247,-0.1061088832503576,0.05692194819215385,0.05713565240795535,0.051896522636336366,-0.18778808770074895,-0.18722175493282794,-0.1824147754769928,-0.147567308056492,-0.14792378328926029,-0.13049446609987936,-0.4180427139942783,0.5582080637450054,0.37434326013872987,1.842252721930884,0.5510927515923215,1.7058133699464182,0.5535592794711368,0.502376264660426,1.075528712008374,0.9445571861462912,2.156870612798707,-1.1615312928200594,2.068992824881461,1.5937893745197083,4.145942381211398,-0.13250565883657858,-0.06306110261578123,-0.4976432798484553,1.7435114409324337,0.5510927515923215,2.630941417214237,1.9433916082847296,1.9433916082847296,1.7371909033466963,2.495793452967644,-1.8813751258272495,26,female,4,12,Modern Times,amusement,3,2,1
66,-0.17441302848720114,-0.17976006210701725,-0.1640501558815425,-0.06730337570063212,-0.07372307483589972,-0.08947329193219472,-0.21228520222518826,-0.21346946670841666,-0.2103432046468722,-0.4482955311001298,-0.4493635199508959,-0.4029606615614713,-0.30857537325685264,-0.3168936332637089,-0.25505740960815176,-0.2942033950101232,-0.2848629588904694,-0.19639572949120546,-0.2089954272129016,-0.21359195114699087,-0.22220057389535897,-0.20208508295131605,-0.19997870071386595,-0.2116454707354185,-0.21264709677615093,-0.21828399308337704,-0.23240639597280005,-0.1914734319632187,-0.19191746344761693,-0.1734532384691287,-0.22031339486533305,-0.2259236018169285,-0.23142859082939024,-0.22599192602821486,-0.2367506070349666,-0.3055474864618959,-0.2359694274879447,-0.23724304053496384,-0.23488476703954364,-0.1929718492377317,-0.19724166320814893,-0.22779650876214055,0.09503255099755542,0.21421057190475026,-0.13985912124609426,0.7370023309407787,0.202281473157446,0.7335842825452472,0.2819117709873891,-0.17689506243087816,0.15153670081049928,0.15979076256733402,0.7887086836363231,2.3857117850044838,1.7763584312749738,0.8879908346074828,2.5067865043375828,-0.051556645019883315,-0.08668014282836822,-0.79129330650082,1.374777181026075,0.202281473157446,0.8661395380682215,0.6352087043961404,0.6352087043961404,0.7395603497694055,0.5700072496409604,-1.2435181324316595,26,female,4,13,Remember the Titans,happiness,3,2,2
67,-0.11452354497799536,-0.10420082494422528,-0.05911768853766206,-0.11746741767268462,-0.11732558728045585,-0.11867608360856005,0.32442318223601924,0.3253286110504734,0.3320534742481575,-0.3324705392322373,-0.3445940796112919,-0.316896578856846,-0.3306141746350021,-0.33990236133573803,-0.2887900664679747,-0.15119095321866616,-0.14639957406902748,-0.10769010291413478,-0.1948298427459271,-0.1962483417378309,-0.23745440880104254,-0.1877408545163314,-0.18399668629298985,-0.2081790699751561,-0.19019256424447886,-0.19031169938389647,-0.23600980086677364,-0.16058680243237555,-0.15844862599871834,-0.15548698619261278,-0.1109848824562876,-0.10786509477083683,-0.11735890282416675,-0.20908541262816,-0.20825765974750365,-0.2771393201891177,-0.2336983519746484,-0.23331021448708014,-0.23626198734232864,-0.17946276694115385,-0.17960268986304967,-0.2082104372157042,-0.6697386623559047,-0.5394191506594176,0.6222092088972119,-0.680140871720745,-0.5428209620232363,-0.7371383311304226,-0.6771789117781422,0.4928622481087498,-0.5898481938899766,-0.6329796369541952,-0.8018441155664874,-0.367520552156624,-0.37291626119813415,-0.5138252587879301,-0.32994222843855164,-0.08170278120529435,0.042082833097230536,-0.4603363145668919,-1.0243564077188174,-0.5428209620232363,-0.7140941639456646,-0.4838153138183366,-0.4838153138183366,-0.7043513760513709,-0.5341362597836883,0.5460303712979219,26,female,4,14,Gentlemans Agreement,anger,2,2,2
68,-0.21591875031390292,-0.21379784293921728,-0.16874980701524567,-0.05698937868530957,-0.057974263665438536,-0.06443079448018467,-0.17176930697976087,-0.17331718985822894,-0.2287426881233251,-0.3648358657027245,-0.3752631960383,-0.34262664631035755,-0.3068264852374657,-0.3160204204015768,-0.28982226953846696,-0.21008852258390312,-0.19775986393124392,-0.12172183746454725,-0.1941053683327115,-0.19573113661294506,-0.1980615874324128,-0.1884282470471063,-0.1848769112665096,-0.204174741678629,-0.1974371271397792,-0.19812069348950664,-0.21917787211720016,-0.18500488869962106,-0.1831201799157308,-0.16514552813619612,-0.20744312144809268,-0.20632378792307893,-0.20611426179360826,-0.21757660555554806,-0.21851688490083052,-0.26817467121174265,-0.11465152147834855,-0.10398632651738557,-0.0786182257235864,-0.1765084805899534,-0.17709554472054906,-0.18239036957886332,-0.6152784868652315,0.2805483366785474,0.5641968899922115,-0.3729797975227659,0.2724162814775209,-0.4398055190119636,0.21453385529268296,0.6790711354403467,-0.3049810904329985,-0.3829013597730608,-0.5054076145647516,0.36229800325804906,-0.3133029648994963,-0.015235621147340294,-0.15807664714301345,-0.3328476338154849,-0.3791821315149797,-0.2452480620044176,0.5274290184462332,0.2724162814775209,-0.4766039213256721,-0.7446395757650688,-0.7446395757650688,-0.09456739297854197,-0.5330729148805239,0.31667433190675376,26,female,4,15,Psycho,fear,1,2,2
69,0.16096720893676186,0.15307299406423067,0.07479446943558814,-0.10954109796336894,-0.1120952124108738,-0.12242698551067575,0.18712570576894508,0.14777472029913727,-0.10888170419243907,0.04811164385541013,0.04895129740660427,0.030906278166557787,-0.25546132506033525,-0.27271486286538354,-0.2841285225265591,-0.06931724993907516,-0.07075893922548318,-0.05384310857854658,-0.09050555887088067,-0.1011236216527354,-0.1862542254031439,-0.12028336478591754,-0.12793379681279946,-0.1722446358314676,-0.02037685546677601,-0.03491498494462185,-0.12277530539620797,-0.0665388191791684,-0.06678474076865891,-0.12883304692557662,-0.14869439922194522,-0.16135090387754053,-0.17088978773596414,0.13926669026502386,0.1144143353727074,-0.12458926397369392,-0.22723206204159946,-0.2292648362196809,-0.23064265268722106,-0.09496591865260673,-0.1067037437436374,-0.18402702702401666,0.1025050752720461,-0.08274452846058153,-0.1591628886326126,0.626496991873852,-0.0885527192581999,0.6280667659861999,-0.045907467533360766,-0.09402030530506947,0.5934459246577151,0.5797021821938341,0.4539075085090079,-0.20955329800587144,0.5493046390810862,-0.23102583150186676,-0.01829117478168097,0.2559635259754932,0.1858482709223291,-0.8928722507390843,0.05084279222663779,-0.0885527192581999,0.729601939580657,0.7827436385783682,0.7827436385783682,0.5335199847596926,0.5725586893564207,-0.4158836002778647,26,female,4,16,The Bourne Identitiy,excitement,3,1,1
70,-0.16368867124580058,-0.1626598154257375,-0.1339295270648046,-0.14247295558486495,-0.14162893115797476,-0.12989109450058414,-0.20326191617809453,-0.20332904300318352,-0.2000962038801884,-0.2905834330994589,-0.2908111989933728,-0.26396581557855164,-0.3799489493266546,-0.3920620897792048,-0.3209739417229177,-0.16057686177008554,-0.15617535134352115,-0.07176178975240301,-0.20289368098950866,-0.20407346369923496,-0.21224073388889364,-0.2015982352663904,-0.1970096703807624,-0.19702185547692333,-0.2118821608342442,-0.21206980331350134,-0.20196872877229216,-0.1974390993972336,-0.1934634566985908,-0.16488701213068338,-0.22079211700489787,-0.21942634743544606,-0.21797989200256904,-0.2547773952886139,-0.254298740375697,-0.2482509708778629,-0.24618276632931216,-0.2458450568672255,-0.2414817984909656,-0.2467800294348084,-0.24735995113471085,-0.2511833233178168,-0.9212605272372762,0.031730973417561543,0.8971568910358271,-0.7751610754113513,0.024693479996113384,-0.8517972760660463,-0.1125269960788218,0.6562319254306549,-0.4601058380134001,-0.526482537248789,-0.1337219909585271,0.7000201183972037,-0.15001699766458304,-0.4228794074360927,-0.2854982895060005,0.05388615032049423,0.1615485790613003,-0.6264637440789761,-0.5076268287726801,0.024693479996113384,-0.8102929572193618,-0.9539150587370188,-0.9539150587370188,-0.4928717026589483,-0.684675665825803,0.2767832757928825,26,female,4,17,The Shawshank Redemption,sadness,1,3,4
71,-0.07885502558200036,-0.06678568027385749,0.09663991354850396,-0.08715249798279408,-0.08771836526479639,-0.03972209263127485,-0.02511054843933649,-0.004785318933881956,0.3889946860634352,0.1166253247432954,0.1578452755968308,0.14962500119456246,-0.09050324690360824,-0.06452392851729419,0.308509680882864,-0.14959970163557154,-0.14619982634799766,-0.1140641338851838,-0.1410821500143936,-0.13467410777160976,-0.010964223220670337,-0.12559775706177204,-0.11756612415048125,-0.005817593900040062,-0.06988041853453568,-0.05215286952667997,0.26354263340062245,-0.09879891946005204,-0.09751349197033914,0.02818766781976585,-0.16922227099971282,-0.1619325793852602,-0.01943080869733327,-0.06635513627601951,-0.04449659222877656,0.3342834140453945,-0.1862230210381198,-0.18085263029235032,-0.09789387794146834,-0.11035451202152972,-0.11248873533435606,-0.03698248074128218,-0.09318722087737327,-0.03336362599291662,0.05523278806293639,0.9097001523596444,-0.03920780913150992,0.8680818081965902,-0.031119248949143,0.03498008228332132,0.3109755403767007,0.2851230897557616,0.4412750391084828,1.9966191717145303,2.72680708583634,0.6433129643788453,0.33850616714920634,0.190914428998226,0.19433346464646,-0.8098245094860205,1.1481753279570135,-0.03920780913150992,1.193360998767247,1.228582981265053,1.228582981265053,0.8239523391195256,1.0700119217553024,-0.333828842404814,26,female,4,18,The Departed,surprise,2,3,3
72,-0.14974815706177227,-0.14908490919594725,-0.12490450748724663,-0.10811716743888047,-0.10801440709542984,-0.10361149350859802,-0.0825024109249437,-0.08235349589736886,-0.0782991716281652,-0.1899066731603228,-0.18960328848398655,-0.17531515987565774,-0.260886296431356,-0.2666493197969123,-0.2109276562560111,-0.15071885138678268,-0.14685683301986238,-0.10977568939375444,-0.17951731705921062,-0.180735316007906,-0.18929378768733415,-0.17420911749586945,-0.1709467076960149,-0.17201244446626113,-0.1526051956838936,-0.15161334529672024,-0.07384553382098151,-0.1714164221206835,-0.1692201215465748,-0.14372188982317555,-0.17305619879131046,-0.17264618500108372,-0.1758496141671918,-0.13883835335863856,-0.13846878773511395,-0.1367519202909363,-0.2173786464737333,-0.2169216072201289,-0.21231370003485409,-0.16392165783916748,-0.16408504987043973,-0.16942716440747274,1.2348596948685415,-0.11042422585597676,-1.1941995053721155,-0.5461532810290292,-0.10514692134258627,-0.4071859786027211,0.12656385652652288,-1.3110436978707842,-0.9733231380283276,-0.8427705904544134,-0.40460787529194986,-0.10526368375109328,-0.3234189036222401,-0.2676042000150712,-0.007906370441744033,-0.29092361323984794,-0.34038664838030624,-0.5444615065875194,-0.045207552128985216,-0.10514692134258627,-0.5326055168217403,-0.5811577355608022,-0.5811577355608022,-0.3485382766682516,-0.5015930664605098,0.06262312540820099,27,female,5,1,Searching for Bobby Fischer,calmness,4,2,2
73,-0.0794681180073992,-0.08036076078656451,-0.10619818278165023,-0.09415913158573544,-0.094357578119223,-0.09292845404885068,-0.006709802932758792,-0.0064387312604164285,-0.0018618828883691274,-0.07551318825079259,-0.10086796915333804,-0.11057180768125544,-0.24362812760026,-0.2591016383296552,-0.20957309174468844,-0.14590613963647409,-0.14230127020800115,-0.10709431570084717,-0.16405641212684027,-0.16530524736628358,-0.16455760343181916,-0.12524502260324255,-0.13039791358872316,-0.15614891761530378,-0.182998760519896,-0.1826154464832678,-0.1667078906865355,-0.15815976723430553,-0.15605064801177154,-0.13166995867833706,-0.06782666656620294,-0.06956222699761178,-0.13333882670626135,-0.14605825307589293,-0.15959825505343886,-0.16464219561065754,-0.1930205179251904,-0.19246966443548744,-0.21514033629030144,-0.10035279206206656,-0.10060522440058944,-0.14436060187265742,1.2864240967959084,-0.548321757825427,-1.232122846689412,-0.29134646714840984,-0.5487487182852733,-0.13665256859451572,-0.3835265229339988,-1.2648894319847228,-0.4912403506776688,-0.3472357625017765,-0.3906814545432174,-1.4702351256785913,-0.3431107294893209,-0.3739042675354505,-0.3043239492585155,-0.25947499131254675,-0.1549044254709924,0.07753168630055338,-0.3414714787166609,-0.5487487182852733,-0.2543538912108784,0.10442353910000876,0.10442353910000876,-0.3858429894868233,-0.18075583423398686,-0.4489979477767124,27,female,5,2,D.O.A.,surprise,2,4,3
74,0.0269271880070754,0.02375643620297928,-0.11699085750911466,-0.10910501190044954,-0.1089809636286139,-0.10436815500117648,-0.07811705705018628,-0.07796141706552442,-0.0738849940545721,-0.1693283932132711,-0.16891818054041685,-0.15720546740781674,0.33329841464226445,0.2670693149350964,-0.21877274222730086,-0.16312342956176815,-0.1585970339151416,-0.1166798259094755,-0.011856163997610664,-0.013321038129884092,-0.18693488978068432,-0.03978257446356078,-0.04301529609244576,-0.1701891168784675,-0.1460408086540617,-0.14492998620082098,-0.12887931591733834,-0.017028849566765775,-0.015725016996299298,-0.14201197915643235,0.03922957609726376,0.03542026008494948,-0.17147408928090652,-0.14211649751858876,-0.1417435796078626,-0.13990497372022345,-0.16578940518431234,-0.16510560296759758,-0.18590766121084346,-0.033784304433518805,-0.0340635956959349,-0.13711437997023168,-0.05432153429644149,1.269734139531106,0.0012985779503852234,1.0686474645022972,1.2597843821903396,1.0331814401361412,1.422829470624781,0.01735447933480987,0.7139666202299123,0.6790988988961916,1.0996998037094132,-0.037015002883824095,-0.3705385975703426,0.3901812968513213,-0.20865117695716226,-0.3715933738411962,-0.3894248069059373,1.7315087304294312,1.0196872113645552,1.2597843821903396,0.9318538838150148,-0.07450491630454649,-0.07450491630454649,1.451505386103347,0.23389833845588603,-1.012549825594078,27,female,5,3,The Hangover,amusement,5,4,4
75,-0.08203738577829482,-0.08285718102063931,-0.07997782568767163,-0.10509032690633408,-0.1050530959165456,-0.1012999288116071,-0.071488282933216,-0.07132270760455403,-0.06722505167353368,-0.15178548076287238,-0.15128455224809825,-0.14177847037622046,-0.16537239455990127,-0.1660327702729162,-0.1226130859827337,-0.17698670671601294,-0.17177553905627554,-0.12465789867437745,-0.11918845820057825,-0.12050778047063465,-0.13008750089043694,-0.12592743759044173,-0.12500797033682706,-0.12795484526829592,-0.15021400208623334,-0.149185204852301,-0.1335214213083097,-0.1309629094807277,-0.12900753404264195,-0.10853733833355388,-0.08447877910932831,-0.08584637320086415,-0.09765920251852636,0.21832195504853708,0.14801220723119268,-0.13700005101183896,-0.19521201537568006,-0.19466218854265965,-0.18985151934323347,-0.11437273310565038,-0.11459057238710595,-0.12084113112779353,1.0765032208776508,-0.6886462356815892,-1.0500349885293936,-0.6055485141671443,-0.6911306847675304,-0.4861226635099327,-0.5803484650321572,-0.937427488595238,-0.3104593035229706,-0.20187517353046253,-1.0164099963347724,-0.06406728571263387,-0.4389976855663799,-0.5145815455501417,-0.2536831792876358,-0.2975502069389827,-0.3203826300623962,-0.3456388815545146,-1.0599394750535165,-0.6911306847675304,-0.5713957390625469,-0.17019722592977948,-0.17019722592977948,-0.7421383104735241,-0.3956478212096472,0.07249614790976894,27,female,5,4,The Ring,fear,1,4,4
76,-0.13394109069312485,-0.13368493740144755,-0.11472811980467305,-0.10343799643196068,-0.10345654851368252,-0.09980038400981264,-0.06637681541396151,-0.06632777926404855,0.021259524701135468,-0.1396375614059713,-0.13924147445439491,-0.1316430468563016,-0.2567054336138617,-0.26231835947153104,-0.207549445469185,-0.12134239189748765,-0.11906794620503032,-0.0934874862549624,-0.17034943177638068,-0.17162111480669814,-0.18058159061122034,-0.16791538837551725,-0.16498796438316396,-0.16648414933029276,-0.1525721988139424,-0.15164939356641075,-0.04319354785706458,-0.16342834493179856,-0.16130960284374848,-0.13697278619060502,-0.15341046184483906,-0.15346672611446904,-0.15899775390571114,-0.12885524283072675,-0.12860693697062156,-0.1279635917691378,-0.2111690795674463,-0.21070768955583147,-0.20618630073646005,-0.152631175245871,-0.15285060158192487,-0.15867972862072194,0.8883944540611126,-0.35769050100608635,-0.8827579354478178,-0.4128735444994073,-0.35909093059468844,-0.3083628169228518,-0.2240152038508297,-0.9035053701051694,-0.6147740657271923,-0.5154685147020368,-0.4838670092222757,0.03118673798044315,-0.15948138953366886,-0.17383096523684238,-0.2771908387616717,-0.22454007952100333,-0.09256783378343003,-0.03032545315496048,0.17888255793039162,-0.35909093059468844,-0.4225296474167991,-0.2712372551710329,-0.2712372551710329,-0.39694115599612695,-0.3696984881114505,0.7130433362854887,27,female,5,5,300,excitement,1,3,2
77,-0.12523956459832325,-0.12510981297400126,-0.10245710408840183,-0.10310955796811194,-0.10311508308576288,-0.09978419752477484,-0.05929859171769492,-0.059113511842945325,-0.05493626835852287,-0.1347385653695408,-0.13414861964218264,-0.12676351730308852,-0.2453964996440377,-0.25032579164240043,-0.19656833920999967,-0.18362526143737695,-0.17807133693371358,-0.10352343621068903,-0.160300925092195,-0.16154888300613515,-0.17041969729761186,-0.15985694037759107,-0.1572894651742898,-0.1589063510090154,-0.14548981481840156,-0.1443684108809681,-0.12827641403388387,-0.16230942461302514,-0.16016516904956027,-0.13578804874345707,-0.14177449561713512,-0.14198854972377853,-0.10303072617774324,0.011773514946337526,0.011987939567291724,-0.12885509414545426,-0.21132139750694495,-0.2108377443919585,-0.2061672755194477,-0.15405089691602336,-0.15422253678400666,-0.15973107944781378,0.8603899844951327,-0.2121865968693658,-0.8350500855331443,-0.14202197024892035,-0.21461271529659992,-0.037774656631793885,-0.0643801377362663,-0.9026102828228578,-0.253211973948731,-0.14760472581609616,-0.2001135033077193,-0.583155334968709,-0.4536929258831073,0.1722930268175624,0.3367135012984754,-0.3898233115952871,-0.4782901295409234,2.8012966701740525,0.6261665220856214,-0.21461271529659992,-0.14773976747947246,-0.07164121478623983,-0.07164121478623983,-0.08066074541501128,-0.19740946146672525,-2.747984019327138,27,female,5,6,National Lampoon's VanWilder,disgust,3,3,4
78,-0.1312238282317287,-0.13098257664135185,-0.11269841569420574,-0.09661005969064147,-0.09675563868941343,-0.09480465806749143,-0.024030429062989408,-0.023787337240240184,-0.019330748266514205,-0.08534772137983666,-0.08454173650697773,-0.08189774339157907,-0.2572076010272896,-0.26279152305742864,-0.20764576071398985,-0.1550859875916789,-0.15102127245796504,-0.08839053431232828,-0.16700156937170252,-0.16825014316772632,-0.17017600045470135,-0.16616005204758702,-0.1632956720295617,-0.15686255262199456,-0.14338832061489,-0.14224065433736008,-0.10669530677504252,-0.16338823176252842,-0.16124710873353276,-0.13678913829247796,-0.15080957788069524,-0.15086442839458175,-0.15042687347844727,-0.09600029898390516,-0.09570249280339672,-0.09577506160391452,-0.2110393771076784,-0.21056117871764696,-0.205931632339132,-0.15098291315394258,-0.1511718106550124,-0.1568250795902911,-0.14012994340386753,0.15764430427234724,0.08890827060291702,0.0005024799859185533,0.15295989178503988,-0.022608462862178814,0.17331693556018427,0.15309083579990984,-0.27028574001952804,-0.29216354194691035,-0.001138512528552777,0.2708982723882335,-0.3105801449112703,-0.01962706232028864,-0.27618360087242305,-0.33127761363018216,-0.3042033324335802,0.465932456376704,0.4506997745186427,0.15295989178503988,-0.0456402442381522,-0.24211589183298202,-0.24211589183298202,0.19281066078849166,-0.21925251170405446,0.4368569897674358,27,female,5,7,Wall-E,happiness,4,3,3
79,-0.12257137771897728,-0.12257507152154325,-0.1072401710520468,-0.07869263870615956,-0.0792243303538952,-0.08107772091934139,0.04085414584762416,0.04101142065881919,0.04456754471555603,-0.11286843791836346,-0.11235705078582546,-0.10876962102564867,-0.2516389786568455,-0.25698806757293235,-0.20291012028868524,-0.08948527491764392,-0.08886078204492763,-0.04600248588114144,-0.16772247494491174,-0.16900197983199824,-0.17802865132260864,-0.16522740440651335,-0.1624337113080746,-0.16405520050035033,-0.14649794587994358,-0.1454635617916174,-0.03677454363980976,-0.16093977461106848,-0.1588389744872131,-0.13482882511322622,-0.14780043308805196,-0.1479771820206441,-0.15409937899824108,-0.12621766550364813,-0.1259796916644097,-0.14340075421366627,-0.21057161452992398,-0.2101093180731784,-0.20559322182846435,-0.14839913152797454,-0.14862806997976785,-0.15456581636328928,0.9735365694850382,-0.3444296193021575,-0.966972856689534,0.6963964005542899,-0.3501871908755671,0.8431461552028734,-0.19287417988044914,-0.9927215113400694,0.8646174928588277,1.00590763622309,0.2389907653941053,0.09304629692299933,-0.22216011798645507,1.6665620838473585,-0.2345271013390093,-0.36956615064735865,-0.4161413720212103,0.780865736823501,1.922650959556714,-0.3501871908755671,0.8981424937001143,1.285328964585614,1.285328964585614,0.5104117742104876,0.9215335933634792,-1.3851976728520323,27,female,5,8,Crash,anger,1,4,4
80,-0.12758842161048614,-0.12740208490510266,-0.1101597353456678,-0.10419915314602056,-0.10418121004410287,-0.10061920510888507,0.06035941808774178,0.06076469618110004,-0.016972727826663942,0.003671087374535185,0.005021787038514015,-0.1203663596909236,-0.25073633172341003,-0.2559451107765305,-0.20146710912107435,-0.07068853808622162,-0.07091271960726954,-0.1033262772614782,-0.1673907732775417,-0.16862325931304648,-0.17735099372471794,-0.163834972576924,-0.1610718746030502,-0.16251768276045456,-0.13551087856190291,-0.13418216852481005,-0.13270648284150754,-0.16043819392494515,-0.1583031660093521,-0.134147616642271,-0.1478545565608089,-0.14794077552919205,-0.15354122662850034,-0.10737254377626472,-0.10701826327816767,-0.03837807037199421,-0.2098725523747353,-0.20938140179094694,-0.20468809023089946,-0.14804428411117584,-0.1482199350256503,-0.15382187944355089,0.2464250780863924,-0.03395576478993026,-0.3019575917736645,0.3286836289027356,-0.03826538305633545,0.35682747511443474,0.035994031191633226,-0.3328357583480917,0.039050717938990384,0.07044195351933481,1.0523328249479809,0.3081278265371578,-0.3734538089606528,-0.38545199980591294,-0.3202956982745519,-0.28616450548757577,-0.2385576998948014,-0.0008929114865969265,-0.3818316624484857,-0.03826538305633545,0.3755945321832649,0.3505682653112966,0.3505682653112966,0.373071487566742,0.19595960028737164,-0.5686589129568309,27,female,5,9,My Girl,sadness,1,2,2
81,-0.1154078612284773,-0.11548509951349716,-0.10209228647451876,-0.07710645229249036,-0.07766166963706736,-0.0798395029361015,0.028976448308268173,0.029317264722091674,0.034046630954634866,0.0811805238525031,0.11075043719979494,0.08845314173707705,-0.056637420266158214,-0.05154735239132264,-0.022584841603403814,-0.049363895449160214,-0.0506670252749668,-0.05218292694963552,-0.12464252497593685,-0.12594173106469805,-0.13539704514747045,-0.13712034171858914,-0.13565087859097372,-0.1381506698944577,-0.038737357602889946,-0.0355201045689661,-0.009919252379451595,-0.14665664542256324,-0.14460583014534972,-0.12219225915580953,-0.07650950733656167,-0.0780159880132461,-0.09053312064750628,0.017138265135930322,0.01737223822061744,0.013206876160408134,-0.12929311268527388,-0.12843473285396512,-0.12289171755145754,-0.09010517718534088,-0.09033360842228946,-0.0970101032718228,-0.37823603672313627,-0.2111415308409152,0.32659869415649945,-0.7154804246907956,-0.19952556160293186,-0.7424968401852626,-0.2747322048046635,0.2554348977088875,-0.4981934684599882,-0.5221226616522867,-0.6777320229699603,-1.4979768053318558,-0.4333363668688256,-0.32227120641426543,-0.20955276361631067,-0.364101212198276,-0.4104802299024261,0.4725767298772249,-0.1907967308978204,-0.19952556160293186,-0.7429366053795695,-0.7548067630329355,-0.7548067630329355,-0.6393436386341862,-0.6147908188457668,0.38770884716282894,27,female,5,10,The Fly,disgust,3,3,3
82,-0.142859287296659,-0.150826138741216,-0.12705863394984554,-0.09629226063634796,-0.0959085422174352,-0.10054020639164568,0.020651479794659918,0.02732813458551964,-0.11597345902550657,-0.3157863266515146,-0.3297143164451085,-0.3927730864790969,-0.21817486508479333,-0.2207336831155086,-0.19645392225618505,-0.07972018118188395,-0.07493312180928496,-0.12969663133830134,-0.14643166668015598,-0.1499176430236257,-0.18405933870611374,-0.08047654593275573,-0.0817529944291859,-0.08644880365427852,-0.09987400830587698,-0.09540849480821806,-0.1573892623853101,-0.17084976558976606,-0.16795394724782522,-0.1552488099844055,-0.046053777777761734,-0.043820812028655565,-0.10785618400533807,0.06322599647486624,0.05560866114406388,-0.1415158435863745,-0.1326882312854497,-0.13189260875229378,-0.1266703073757075,-0.1494944401802301,-0.15631233034158848,-0.1779762456115714,-0.1748769979598431,-0.31181895417884425,0.12155163214337696,-0.24988335091965985,-0.3024774759264153,-0.27022630850941354,-0.35007812264853616,0.09990403526528996,-0.9914012422376104,-0.983029169482618,-0.19176324158295224,-0.6179976513963804,-0.4517167498666642,-0.4226869343036537,-0.3170724196003828,-0.3710781944702428,-0.3870818269716161,1.7214563841944983,-0.5390277390231716,-0.3024774759264153,-0.24816743723036044,-0.11368778526754357,-0.11368778526754357,-0.21789021369943706,-0.2518724719581821,0.19453017891242133,27,female,5,11,Pride and Prejudice,calmness,4,2,3
